{
  "AcquisitionMatrixPE": 104,
  "AcquisitionNumber": 1,
  "AcquisitionTime": "19:53:12.870000",
  "BandwidthPerPixelPhaseEncode": 17.17,
  "BaseResolution": 104,
  "BodyPartExamined": "BRAIN",
  "ConsistencyInfo": "N4_VE11C_LATEST_20160120",
  "ConversionSoftware": "dcm2niix",
  "ConversionSoftwareVersion": "v1.0.20190410  GCC6.3.0",
  "DerivedVendorReportedEchoSpacing": 0.000560011,
  "DeviceSerialNumber": "166018",
  "DwellTime": 2.1e-06,
  "EchoTime": 0.035,
  "EchoTrainLength": 104,
  "EffectiveEchoSpacing": 0.000560011,
  "FlipAngle": 62,
  "ImageComments": "Unaliased_MB4_PE3_LB",
  "ImageOrientationPatientDICOM": [1, 0, 0, 0, 0.999998, -0.00174533],
  "ImageType": [
    "ORIGINAL",
    "PRIMARY",
    "M",
    "MB",
    "ND",
    "MOSAIC"
],
  "ImagingFrequency": 123.191,
  "InPlanePhaseEncodingDirectionDICOM": "COL",
  "InstitutionAddress": "Washington_Place_6_NYC_NYC_US_10003",
  "InstitutionName": "NYU_-_CBI",
  "InstitutionalDepartmentName": "Department",
  "MRAcquisitionType": "2D",
  "MagneticFieldStrength": 3,
  "Manufacturer": "Siemens",
  "ManufacturersModelName": "Prisma",
  "Modality": "MR",
  "MultibandAccelerationFactor": 4,
  "PartialFourier": 1,
  "PatientPosition": "HFS",
  "PercentPhaseFOV": 100,
  "PhaseEncodingDirection": "j-",
  "PhaseEncodingSteps": 104,
  "PhaseResolution": 1,
  "PixelBandwidth": 2290,
  "ProcedureStepDescription": "",
  "ProtocolName": "epi_MB4_2mm_motion",
  "PulseSequenceDetails": "%CustomerSeq%_cmrr_mbep2d_bold",
  "ReceiveCoilActiveElements": "HEA;HEP",
  "ReceiveCoilName": "Head_32",
  "ReconMatrixPE": 104,
  "RepetitionTime": 1.3,
  "SAR": 0.0756526,
  "ScanOptions": "FS",
  "ScanningSequence": "EP",
  "SequenceName": "epfid2d1_104",
  "SequenceVariant": "SK_SS",
  "SeriesDescription": "epi_MB4_2mm_motion",
  "SeriesNumber": 5,
  "ShimSetting": [253, -12605, -8374, 741, 76, 142, -143, 28],
  "SliceThickness": 2,
  "SliceTiming": [0, 0.56, 1.12, 0.4, 0.96, 0.24, 0.8, 0.08, 0.64, 1.2, 0.48, 1.04, 0.32, 0.88, 0.16, 0.72, 0, 0.56, 1.12, 0.4, 0.96, 0.24, 0.8, 0.08, 0.64, 1.2, 0.48, 1.04, 0.32, 0.88, 0.16, 0.72, 0, 0.56, 1.12, 0.4, 0.96, 0.24, 0.8, 0.08, 0.64, 1.2, 0.48, 1.04, 0.32, 0.88, 0.16, 0.72, 0, 0.56, 1.12, 0.4, 0.96, 0.24, 0.8, 0.08, 0.64, 1.2, 0.48, 1.04, 0.32, 0.88, 0.16, 0.72],
  "SoftwareVersions": "syngo_MR_E11",
  "SpacingBetweenSlices": 2,
  "StationName": "AWP166018",
  "TaskName": "TASK",
  "TotalReadoutTime": 0.0576811,
  "TxRefAmp": 245.945,
  "WipMemBlock": "bf20f7b8-1f09-44a7-bf31-b6cb0d822e90||Sequence: R016 ve11c/master r/8780670; Nov 27 2017 15:05:12 by eja",
  "dcmmeta_affine": [
    [-2.0, 0.0, 0.0, 104.0],
    [0.0, 1.9999969005584717, -0.003490656614303589, -94.20155334472656],
    [0.0, 0.003490656614303589, 1.9999970197677612, -45.25112533569336],
    [0.0, 0.0, 0.0, 1.0]
],
  "dcmmeta_reorient_transform": [
    [0.0, -1.0, 0.0, 103.0],
    [1.0, 0.0, 0.0, 0.0],
    [0.0, 0.0, 1.0, 0.0],
    [0.0, 0.0, 0.0, 1.0]
],
  "dcmmeta_shape": [104, 104, 64, 324],
  "dcmmeta_slice_dim": 2,
  "dcmmeta_version": 0.6,
  "global": {
    "const": {
      "AccessionNumber": "jyuhh122",
      "AcquisitionMatrix": [104, 0, 0, 104],
      "AngioFlag": "N",
      "BitsAllocated": 16,
      "BitsStored": 16,
      "BodyPartExamined": "BRAIN",
      "Columns": 832,
      "EchoNumbers": 1,
      "EchoTime": 35.0,
      "EchoTrainLength": 104,
      "FlipAngle": 62.0,
      "HighBit": 15,
      "ImageOrientationPatient": [1.0, 0.0, 0.0, 0.0, 0.99999847691345, -0.0017453282742],
      "ImagePositionPatient": [-832.0, -839.79702733621, -43.620987919579],
      "ImageType": [
        "ORIGINAL",
        "PRIMARY",
        "M",
        "MB",
        "ND",
        "MOSAIC"
],
      "ImagedNucleus": "1H",
      "ImagingFrequency": 123.19109,
      "InPlanePhaseEncodingDirection": "COL",
      "MRAcquisitionType": "2D",
      "MagneticFieldStrength": 3.0,
      "Manufacturer": "SIEMENS",
      "ManufacturerModelName": "Prisma",
      "Modality": "MR",
      "NumberOfAverages": 1.0,
      "NumberOfPhaseEncodingSteps": 104,
      "PercentPhaseFieldOfView": 100.0,
      "PercentSampling": 100.0,
      "PerformedProcedureStepStartTime": "192525.436000",
      "PhotometricInterpretation": "MONOCHROME2",
      "PixelBandwidth": 2290.0,
      "PixelRepresentation": 0,
      "PixelSpacing": [2.0, 2.0],
      "ProtocolName": "epi_MB4_2mm_motion",
      "RepetitionTime": 1300.0,
      "Rows": 832,
      "SAR": 0.07565256171685,
      "SamplesPerPixel": 1,
      "ScanOptions": "FS",
      "ScanningSequence": "EP",
      "SequenceName": "epfid2d1_104",
      "SequenceVariant": [
        "SK",
        "SS"
],
      "SeriesDescription": "epi_MB4_2mm_motion",
      "SeriesNumber": 5,
      "SeriesTime": "195400.223000",
      "SliceLocation": -45.086642977426,
      "SliceThickness": 2.0,
      "SmallestImagePixelValue": 0,
      "SoftwareVersions": "syngo MR E11",
      "SpacingBetweenSlices": 2.0000000791921,
      "SpecificCharacterSet": "ISO_IR 100",
      "StudyID": "1",
      "StudyTime": "192525.370000",
      "TransmitCoilName": "Body",
      "VariableFlipAngleFlag": "N",
      "WindowCenterWidthExplanation": "Algo1",
      "dBdt": 0.0},
    "slices": {}
  },
  "time": {
    "samples": {
      "AcquisitionNumber": [1, 2, 3, 4, 5, 6, 7, 8, 9, 10, 11, 12, 13, 14, 15, 16, 17, 18, 19, 20, 21, 22, 23, 24, 25, 26, 27, 28, 29, 30, 31, 32, 33, 34, 35, 36, 37, 38, 39, 40, 41, 42, 43, 44, 45, 46, 47, 48, 49, 50, 51, 52, 53, 54, 55, 56, 57, 58, 59, 60, 61, 62, 63, 64, 65, 66, 67, 68, 69, 70, 71, 72, 73, 74, 75, 76, 77, 78, 79, 80, 81, 82, 83, 84, 85, 86, 87, 88, 89, 90, 91, 92, 93, 94, 95, 96, 97, 98, 99, 100, 101, 102, 103, 104, 105, 106, 107, 108, 109, 110, 111, 112, 113, 114, 115, 116, 117, 118, 119, 120, 121, 122, 123, 124, 125, 126, 127, 128, 129, 130, 131, 132, 133, 134, 135, 136, 137, 138, 139, 140, 141, 142, 143, 144, 145, 146, 147, 148, 149, 150, 151, 152, 153, 154, 155, 156, 157, 158, 159, 160, 161, 162, 163, 164, 165, 166, 167, 168, 169, 170, 171, 172, 173, 174, 175, 176, 177, 178, 179, 180, 181, 182, 183, 184, 185, 186, 187, 188, 189, 190, 191, 192, 193, 194, 195, 196, 197, 198, 199, 200, 201, 202, 203, 204, 205, 206, 207, 208, 209, 210, 211, 212, 213, 214, 215, 216, 217, 218, 219, 220, 221, 222, 223, 224, 225, 226, 227, 228, 229, 230, 231, 232, 233, 234, 235, 236, 237, 238, 239, 240, 241, 242, 243, 244, 245, 246, 247, 248, 249, 250, 251, 252, 253, 254, 255, 256, 257, 258, 259, 260, 261, 262, 263, 264, 265, 266, 267, 268, 269, 270, 271, 272, 273, 274, 275, 276, 277, 278, 279, 280, 281, 282, 283, 284, 285, 286, 287, 288, 289, 290, 291, 292, 293, 294, 295, 296, 297, 298, 299, 300, 301, 302, 303, 304, 305, 306, 307, 308, 309, 310, 311, 312, 313, 314, 315, 316, 317, 318, 319, 320, 321, 322, 323, 324],
      "AcquisitionTime": ["195312.870000", "195314.170000", "195315.470000", "195316.770000", "195318.070000", "195319.370000", "195320.670000", "195321.970000", "195323.270000", "195324.570000", "195325.870000", "195327.170000", "195328.470000", "195329.770000", "195331.070000", "195332.370000", "195333.670000", "195334.970000", "195336.270000", "195337.570000", "195338.870000", "195340.170000", "195341.470000", "195342.770000", "195344.070000", "195345.370000", "195346.670000", "195347.970000", "195349.270000", "195350.570000", "195351.870000", "195353.170000", "195354.470000", "195355.770000", "195357.070000", "195358.370000", "195359.670000", "195400.970000", "195402.270000", "195403.570000", "195404.870000", "195406.170000", "195407.470000", "195408.770000", "195410.070000", "195411.370000", "195412.670000", "195413.970000", "195415.270000", "195416.570000", "195417.870000", "195419.170000", "195420.470000", "195421.770000", "195423.070000", "195424.370000", "195425.670000", "195426.970000", "195428.270000", "195429.570000", "195430.870000", "195432.170000", "195433.470000", "195434.770000", "195436.070000", "195437.370000", "195438.670000", "195439.970000", "195441.270000", "195442.570000", "195443.870000", "195445.170000", "195446.470000", "195447.770000", "195449.070000", "195450.370000", "195451.670000", "195452.970000", "195454.270000", "195455.570000", "195456.870000", "195458.170000", "195459.470000", "195500.770000", "195502.070000", "195503.370000", "195504.670000", "195505.970000", "195507.270000", "195508.570000", "195509.870000", "195511.170000", "195512.470000", "195513.770000", "195515.070000", "195516.370000", "195517.670000", "195518.970000", "195520.270000", "195521.570000", "195522.870000", "195524.170000", "195525.470000", "195526.770000", "195528.070000", "195529.370000", "195530.670000", "195531.970000", "195533.270000", "195534.570000", "195535.870000", "195537.170000", "195538.470000", "195539.770000", "195541.070000", "195542.370000", "195543.670000", "195544.970000", "195546.270000", "195547.570000", "195548.870000", "195550.170000", "195551.470000", "195552.770000", "195554.070000", "195555.370000", "195556.670000", "195557.970000", "195559.270000", "195600.570000", "195601.870000", "195603.170000", "195604.470000", "195605.770000", "195607.070000", "195608.370000", "195609.670000", "195610.970000", "195612.270000", "195613.570000", "195614.870000", "195616.170000", "195617.470000", "195618.770000", "195620.070000", "195621.370000", "195622.670000", "195623.970000", "195625.270000", "195626.570000", "195627.870000", "195629.170000", "195630.470000", "195631.770000", "195633.070000", "195634.370000", "195635.670000", "195636.970000", "195638.270000", "195639.570000", "195640.870000", "195642.170000", "195643.470000", "195644.770000", "195646.070000", "195647.370000", "195648.670000", "195649.970000", "195651.270000", "195652.570000", "195653.870000", "195655.170000", "195656.470000", "195657.770000", "195659.070000", "195700.370000", "195701.670000", "195702.970000", "195704.270000", "195705.570000", "195706.870000", "195708.170000", "195709.470000", "195710.770000", "195712.070000", "195713.370000", "195714.670000", "195715.970000", "195717.270000", "195718.570000", "195719.870000", "195721.170000", "195722.470000", "195723.770000", "195725.070000", "195726.370000", "195727.670000", "195728.970000", "195730.270000", "195731.570000", "195732.870000", "195734.170000", "195735.470000", "195736.770000", "195738.070000", "195739.370000", "195740.670000", "195741.970000", "195743.270000", "195744.570000", "195745.870000", "195747.170000", "195748.470000", "195749.770000", "195751.070000", "195752.370000", "195753.670000", "195754.970000", "195756.270000", "195757.570000", "195758.870000", "195800.170000", "195801.470000", "195802.770000", "195804.070000", "195805.370000", "195806.670000", "195807.970000", "195809.270000", "195810.570000", "195811.870000", "195813.170000", "195814.470000", "195815.770000", "195817.070000", "195818.370000", "195819.670000", "195820.970000", "195822.270000", "195823.570000", "195824.870000", "195826.170000", "195827.470000", "195828.770000", "195830.070000", "195831.370000", "195832.670000", "195833.970000", "195835.270000", "195836.570000", "195837.870000", "195839.170000", "195840.470000", "195841.770000", "195843.070000", "195844.370000", "195845.670000", "195846.970000", "195848.270000", "195849.570000", "195850.870000", "195852.170000", "195853.470000", "195854.770000", "195856.070000", "195857.370000", "195858.670000", "195859.970000", "195901.270000", "195902.570000", "195903.870000", "195905.170000", "195906.470000", "195907.770000", "195909.070000", "195910.370000", "195911.670000", "195912.970000", "195914.270000", "195915.570000", "195916.870000", "195918.170000", "195919.470000", "195920.770000", "195922.070000", "195923.370000", "195924.670000", "195925.970000", "195927.270000", "195928.570000", "195929.870000", "195931.170000", "195932.470000", "195933.770000", "195935.070000", "195936.370000", "195937.670000", "195938.970000", "195940.270000", "195941.570000", "195942.870000", "195944.170000", "195945.470000", "195946.770000", "195948.070000", "195949.370000", "195950.670000", "195951.970000", "195953.270000", "195954.570000", "195955.870000", "195957.170000", "195958.470000", "195959.770000", "200001.070000", "200002.370000", "200003.670000", "200004.970000", "200006.270000", "200007.570000", "200008.870000", "200010.170000", "200011.470000", "200012.770000"],
      "ContentTime": ["195400.226000", "195400.229000", "195400.232000", "195400.235000", "195400.238000", "195400.241000", "195400.244000", "195400.247000", "195400.250000", "195400.253000", "195400.256000", "195400.259000", "195400.262000", "195400.265000", "195400.270000", "195400.283000", "195400.286000", "195400.289000", "195400.292000", "195400.295000", "195400.298000", "195400.301000", "195400.308000", "195400.311000", "195400.314000", "195400.317000", "195400.320000", "195400.323000", "195400.326000", "195400.328000", "195400.331000", "195400.334000", "195400.337000", "195400.340000", "195400.343000", "195440.199000", "195440.202000", "195440.213000", "195440.216000", "195440.219000", "195440.221000", "195440.224000", "195440.227000", "195440.230000", "195440.233000", "195440.236000", "195440.239000", "195440.242000", "195440.255000", "195440.258000", "195440.261000", "195440.264000", "195440.267000", "195440.270000", "195440.273000", "195440.276000", "195440.279000", "195440.286000", "195440.289000", "195440.292000", "195440.295000", "195440.298000", "195440.300000", "195440.304000", "195440.307000", "195440.310000", "195520.199000", "195520.202000", "195520.205000", "195520.208000", "195520.211000", "195520.214000", "195520.216000", "195520.220000", "195520.223000", "195520.225000", "195520.228000", "195520.231000", "195520.234000", "195520.237000", "195520.240000", "195520.243000", "195520.246000", "195520.249000", "195520.252000", "195520.255000", "195520.258000", "195520.261000", "195520.264000", "195520.267000", "195520.270000", "195520.273000", "195520.276000", "195520.278000", "195520.281000", "195520.284000", "195520.287000", "195600.199000", "195600.202000", "195600.205000", "195600.208000", "195600.211000", "195600.214000", "195600.217000", "195600.220000", "195600.223000", "195600.226000", "195600.229000", "195600.232000", "195600.234000", "195600.237000", "195600.241000", "195600.243000", "195600.246000", "195600.249000", "195600.252000", "195600.255000", "195600.258000", "195600.261000", "195600.264000", "195600.267000", "195600.270000", "195600.273000", "195600.276000", "195600.279000", "195600.282000", "195600.285000", "195600.288000", "195640.199000", "195640.202000", "195640.205000", "195640.208000", "195640.211000", "195640.214000", "195640.217000", "195640.219000", "195640.222000", "195640.226000", "195640.228000", "195640.231000", "195640.234000", "195640.237000", "195640.240000", "195640.243000", "195640.246000", "195640.249000", "195640.252000", "195640.255000", "195640.258000", "195640.261000", "195640.264000", "195640.267000", "195640.270000", "195640.272000", "195640.275000", "195640.278000", "195640.281000", "195640.284000", "195640.287000", "195720.199000", "195720.202000", "195720.205000", "195720.208000", "195720.211000", "195720.214000", "195720.216000", "195720.219000", "195720.222000", "195720.225000", "195720.228000", "195720.231000", "195720.234000", "195720.237000", "195720.240000", "195720.242000", "195720.245000", "195720.248000", "195720.251000", "195720.254000", "195720.257000", "195720.260000", "195720.263000", "195720.265000", "195720.268000", "195720.271000", "195720.274000", "195720.277000", "195720.280000", "195720.283000", "195800.199000", "195800.202000", "195800.205000", "195800.208000", "195800.211000", "195800.214000", "195800.217000", "195800.220000", "195800.223000", "195800.226000", "195800.229000", "195800.232000", "195800.235000", "195800.238000", "195800.241000", "195800.244000", "195800.246000", "195800.249000", "195800.252000", "195800.255000", "195800.258000", "195800.261000", "195800.264000", "195800.267000", "195800.270000", "195800.273000", "195800.276000", "195800.279000", "195800.282000", "195800.285000", "195800.288000", "195840.199000", "195840.202000", "195840.205000", "195840.208000", "195840.211000", "195840.214000", "195840.217000", "195840.220000", "195840.223000", "195840.226000", "195840.229000", "195840.232000", "195840.235000", "195840.238000", "195840.241000", "195840.244000", "195840.247000", "195840.250000", "195840.253000", "195840.256000", "195840.259000", "195840.262000", "195840.265000", "195840.267000", "195840.270000", "195840.273000", "195840.276000", "195840.279000", "195840.294000", "195840.297000", "195840.300000", "195920.199000", "195920.202000", "195920.205000", "195920.208000", "195920.211000", "195920.214000", "195920.216000", "195920.219000", "195920.222000", "195920.225000", "195920.228000", "195920.231000", "195920.234000", "195920.243000", "195920.246000", "195920.249000", "195920.252000", "195920.255000", "195920.257000", "195920.260000", "195920.263000", "195920.266000", "195920.269000", "195920.272000", "195920.275000", "195920.278000", "195920.281000", "195920.284000", "195920.287000", "195920.290000", "195920.292000", "200000.199000", "200000.202000", "200000.205000", "200000.208000", "200000.211000", "200000.214000", "200000.217000", "200000.220000", "200000.223000", "200000.226000", "200000.229000", "200000.232000", "200000.235000", "200000.238000", "200000.241000", "200000.244000", "200000.246000", "200000.249000", "200000.252000", "200000.255000", "200000.258000", "200000.261000", "200000.264000", "200000.267000", "200000.270000", "200000.273000", "200000.276000", "200000.279000", "200000.282000", "200000.285000", "200014.725000", "200014.728000", "200014.731000", "200014.734000", "200014.737000", "200014.740000", "200014.743000", "200014.746000", "200014.749000", "200014.752000", "200014.755000", "200014.758000"],
      "InstanceCreationTime": ["195400.226000", "195400.229000", "195400.232000", "195400.235000", "195400.238000", "195400.241000", "195400.244000", "195400.247000", "195400.250000", "195400.253000", "195400.256000", "195400.259000", "195400.262000", "195400.265000", "195400.270000", "195400.283000", "195400.286000", "195400.289000", "195400.292000", "195400.295000", "195400.298000", "195400.301000", "195400.308000", "195400.311000", "195400.314000", "195400.317000", "195400.320000", "195400.323000", "195400.326000", "195400.328000", "195400.331000", "195400.334000", "195400.337000", "195400.340000", "195400.343000", "195440.199000", "195440.202000", "195440.213000", "195440.216000", "195440.219000", "195440.221000", "195440.224000", "195440.227000", "195440.230000", "195440.233000", "195440.236000", "195440.239000", "195440.242000", "195440.255000", "195440.258000", "195440.261000", "195440.264000", "195440.267000", "195440.270000", "195440.273000", "195440.276000", "195440.279000", "195440.286000", "195440.289000", "195440.292000", "195440.295000", "195440.298000", "195440.300000", "195440.304000", "195440.307000", "195440.310000", "195520.199000", "195520.202000", "195520.205000", "195520.208000", "195520.211000", "195520.214000", "195520.216000", "195520.220000", "195520.223000", "195520.225000", "195520.228000", "195520.231000", "195520.234000", "195520.237000", "195520.240000", "195520.243000", "195520.246000", "195520.249000", "195520.252000", "195520.255000", "195520.258000", "195520.261000", "195520.264000", "195520.267000", "195520.270000", "195520.273000", "195520.276000", "195520.278000", "195520.281000", "195520.284000", "195520.287000", "195600.199000", "195600.202000", "195600.205000", "195600.208000", "195600.211000", "195600.214000", "195600.217000", "195600.220000", "195600.223000", "195600.226000", "195600.229000", "195600.232000", "195600.234000", "195600.237000", "195600.241000", "195600.243000", "195600.246000", "195600.249000", "195600.252000", "195600.255000", "195600.258000", "195600.261000", "195600.264000", "195600.267000", "195600.270000", "195600.273000", "195600.276000", "195600.279000", "195600.282000", "195600.285000", "195600.288000", "195640.199000", "195640.202000", "195640.205000", "195640.208000", "195640.211000", "195640.214000", "195640.217000", "195640.219000", "195640.222000", "195640.226000", "195640.228000", "195640.231000", "195640.234000", "195640.237000", "195640.240000", "195640.243000", "195640.246000", "195640.249000", "195640.252000", "195640.255000", "195640.258000", "195640.261000", "195640.264000", "195640.267000", "195640.270000", "195640.272000", "195640.275000", "195640.278000", "195640.281000", "195640.284000", "195640.287000", "195720.199000", "195720.202000", "195720.205000", "195720.208000", "195720.211000", "195720.214000", "195720.216000", "195720.219000", "195720.222000", "195720.225000", "195720.228000", "195720.231000", "195720.234000", "195720.237000", "195720.240000", "195720.242000", "195720.245000", "195720.248000", "195720.251000", "195720.254000", "195720.257000", "195720.260000", "195720.263000", "195720.265000", "195720.268000", "195720.271000", "195720.274000", "195720.277000", "195720.280000", "195720.283000", "195800.199000", "195800.202000", "195800.205000", "195800.208000", "195800.211000", "195800.214000", "195800.217000", "195800.220000", "195800.223000", "195800.226000", "195800.229000", "195800.232000", "195800.235000", "195800.238000", "195800.241000", "195800.244000", "195800.246000", "195800.249000", "195800.252000", "195800.255000", "195800.258000", "195800.261000", "195800.264000", "195800.267000", "195800.270000", "195800.273000", "195800.276000", "195800.279000", "195800.282000", "195800.285000", "195800.288000", "195840.199000", "195840.202000", "195840.205000", "195840.208000", "195840.211000", "195840.214000", "195840.217000", "195840.220000", "195840.223000", "195840.226000", "195840.229000", "195840.232000", "195840.235000", "195840.238000", "195840.241000", "195840.244000", "195840.247000", "195840.250000", "195840.253000", "195840.256000", "195840.259000", "195840.262000", "195840.265000", "195840.267000", "195840.270000", "195840.273000", "195840.276000", "195840.279000", "195840.294000", "195840.297000", "195840.300000", "195920.199000", "195920.202000", "195920.205000", "195920.208000", "195920.211000", "195920.214000", "195920.216000", "195920.219000", "195920.222000", "195920.225000", "195920.228000", "195920.231000", "195920.234000", "195920.243000", "195920.246000", "195920.249000", "195920.252000", "195920.255000", "195920.257000", "195920.260000", "195920.263000", "195920.266000", "195920.269000", "195920.272000", "195920.275000", "195920.278000", "195920.281000", "195920.284000", "195920.287000", "195920.290000", "195920.292000", "200000.199000", "200000.202000", "200000.205000", "200000.208000", "200000.211000", "200000.214000", "200000.217000", "200000.220000", "200000.223000", "200000.226000", "200000.229000", "200000.232000", "200000.235000", "200000.238000", "200000.241000", "200000.244000", "200000.246000", "200000.249000", "200000.252000", "200000.255000", "200000.258000", "200000.261000", "200000.264000", "200000.267000", "200000.270000", "200000.273000", "200000.276000", "200000.279000", "200000.282000", "200000.285000", "200014.725000", "200014.728000", "200014.731000", "200014.734000", "200014.737000", "200014.740000", "200014.743000", "200014.746000", "200014.749000", "200014.752000", "200014.755000", "200014.758000"],
      "InstanceNumber": [1, 2, 3, 4, 5, 6, 7, 8, 9, 10, 11, 12, 13, 14, 15, 16, 17, 18, 19, 20, 21, 22, 23, 24, 25, 26, 27, 28, 29, 30, 31, 32, 33, 34, 35, 36, 37, 38, 39, 40, 41, 42, 43, 44, 45, 46, 47, 48, 49, 50, 51, 52, 53, 54, 55, 56, 57, 58, 59, 60, 61, 62, 63, 64, 65, 66, 67, 68, 69, 70, 71, 72, 73, 74, 75, 76, 77, 78, 79, 80, 81, 82, 83, 84, 85, 86, 87, 88, 89, 90, 91, 92, 93, 94, 95, 96, 97, 98, 99, 100, 101, 102, 103, 104, 105, 106, 107, 108, 109, 110, 111, 112, 113, 114, 115, 116, 117, 118, 119, 120, 121, 122, 123, 124, 125, 126, 127, 128, 129, 130, 131, 132, 133, 134, 135, 136, 137, 138, 139, 140, 141, 142, 143, 144, 145, 146, 147, 148, 149, 150, 151, 152, 153, 154, 155, 156, 157, 158, 159, 160, 161, 162, 163, 164, 165, 166, 167, 168, 169, 170, 171, 172, 173, 174, 175, 176, 177, 178, 179, 180, 181, 182, 183, 184, 185, 186, 187, 188, 189, 190, 191, 192, 193, 194, 195, 196, 197, 198, 199, 200, 201, 202, 203, 204, 205, 206, 207, 208, 209, 210, 211, 212, 213, 214, 215, 216, 217, 218, 219, 220, 221, 222, 223, 224, 225, 226, 227, 228, 229, 230, 231, 232, 233, 234, 235, 236, 237, 238, 239, 240, 241, 242, 243, 244, 245, 246, 247, 248, 249, 250, 251, 252, 253, 254, 255, 256, 257, 258, 259, 260, 261, 262, 263, 264, 265, 266, 267, 268, 269, 270, 271, 272, 273, 274, 275, 276, 277, 278, 279, 280, 281, 282, 283, 284, 285, 286, 287, 288, 289, 290, 291, 292, 293, 294, 295, 296, 297, 298, 299, 300, 301, 302, 303, 304, 305, 306, 307, 308, 309, 310, 311, 312, 313, 314, 315, 316, 317, 318, 319, 320, 321, 322, 323, 324],
      "LargestImagePixelValue": [27924, 26978, 26504, 26376, 26132, 26465, 25953, 26038, 26729, 26236, 26346, 26648, 26065, 26472, 26277, 26304, 26496, 26071, 26124, 26073, 26141, 26289, 26267, 26453, 26040, 26431, 25797, 25677, 26100, 26090, 26447, 26045, 25952, 26097, 26236, 25902, 25674, 26339, 25353, 25921, 25503, 26026, 25675, 25972, 24654, 24807, 23978, 23655, 24620, 23414, 24009, 24144, 24482, 23352, 24447, 24694, 24525, 24647, 24410, 26742, 26580, 27011, 27488, 27193, 24193, 24452, 23989, 24253, 23934, 24274, 23760, 23777, 24245, 24462, 24580, 23495, 23911, 24242, 23900, 24197, 24857, 24405, 24464, 24356, 24343, 25035, 24544, 24632, 22954, 21221, 21764, 22050, 21727, 22475, 22111, 24334, 24354, 24131, 24801, 24367, 22191, 24317, 21911, 21820, 21338, 21665, 22147, 22184, 28704, 24157, 23451, 22336, 20023, 25004, 24812, 23837, 24248, 23920, 23559, 23957, 23698, 23852, 23175, 23513, 23554, 23794, 23708, 23687, 23763, 24278, 24023, 24219, 24487, 24511, 24290, 24021, 23982, 24125, 23427, 22526, 22117, 21630, 21798, 23593, 25632, 26742, 26708, 26631, 26813, 27076, 21705, 25241, 22457, 22081, 21788, 21747, 22186, 28128, 26719, 26539, 26663, 26092, 23654, 24700, 24796, 25393, 24250, 24413, 24346, 24437, 24526, 25307, 24492, 24280, 24424, 24472, 23806, 24580, 23508, 23974, 23302, 24099, 24504, 23564, 24119, 23603, 24498, 22351, 24434, 24474, 23653, 22574, 23124, 24003, 24429, 23145, 22635, 23762, 23537, 23947, 23522, 23068, 24410, 23904, 24363, 24409, 24343, 24373, 23694, 22778, 22968, 22580, 23261, 23800, 22924, 24139, 23378, 23963, 23590, 23481, 23031, 23327, 23855, 23136, 23740, 23254, 23729, 24165, 23486, 24051, 23895, 22591, 28507, 26446, 25689, 25368, 25107, 23437, 25136, 23770, 23559, 23400, 22925, 22311, 29506, 26184, 24790, 24173, 24643, 20872, 24594, 25260, 24288, 25513, 23030, 19133, 31586, 27766, 24676, 23834, 23945, 24046, 24261, 25395, 25609, 25331, 25189, 24262, 24546, 23746, 24109, 23948, 24550, 24473, 24731, 25233, 24930, 25418, 24377, 24400, 24062, 24434, 24169, 24576, 25153, 25347, 22553, 25464, 24280, 24207, 23848, 23511, 23839, 25556, 24904, 23503, 24251, 23009, 24015, 22990, 23656, 23152, 23151, 23283, 23503, 26376, 26668, 27253, 26998, 27562, 27270, 27463, 27206, 27288, 26717, 27132, 26842, 27341, 27239, 27204, 27293, 26973, 27225, 26631],
      "WindowCenter": [6805.0, 6792.0, 6782.0, 6783.0, 6783.0, 6780.0, 6769.0, 6761.0, 6766.0, 6756.0, 6758.0, 6768.0, 6760.0, 6767.0, 6768.0, 6767.0, 6770.0, 6761.0, 6768.0, 6758.0, 6755.0, 6766.0, 6766.0, 6769.0, 6770.0, 6780.0, 6770.0, 6749.0, 6757.0, 6747.0, 6745.0, 6745.0, 6744.0, 6755.0, 6758.0, 6760.0, 6771.0, 6780.0, 6775.0, 6785.0, 6799.0, 6809.0, 6788.0, 6783.0, 6765.0, 6774.0, 6765.0, 6756.0, 6775.0, 6747.0, 6746.0, 6755.0, 6764.0, 6747.0, 6763.0, 6763.0, 6765.0, 6774.0, 6765.0, 6800.0, 6791.0, 6790.0, 6799.0, 6790.0, 6769.0, 6764.0, 6758.0, 6776.0, 6768.0, 6756.0, 6743.0, 6744.0, 6744.0, 6755.0, 6764.0, 6737.0, 6754.0, 6752.0, 6734.0, 6740.0, 6748.0, 6741.0, 6762.0, 6754.0, 6753.0, 6752.0, 6753.0, 6752.0, 6616.0, 6587.0, 6710.0, 6704.0, 6707.0, 6693.0, 6520.0, 6769.0, 6755.0, 6734.0, 6741.0, 6715.0, 6435.0, 6736.0, 6697.0, 6712.0, 6727.0, 6739.0, 6541.0, 6670.0, 6833.0, 6754.0, 6731.0, 6668.0, 6456.0, 6750.0, 6744.0, 6670.0, 6795.0, 6788.0, 6791.0, 6791.0, 6778.0, 6774.0, 6743.0, 6741.0, 6739.0, 6740.0, 6750.0, 6750.0, 6751.0, 6759.0, 6762.0, 6751.0, 6748.0, 6736.0, 6735.0, 6747.0, 6760.0, 6690.0, 6772.0, 6736.0, 6728.0, 6717.0, 6679.0, 6562.0, 6791.0, 6773.0, 6763.0, 6763.0, 6761.0, 6760.0, 6551.0, 6647.0, 6750.0, 6718.0, 6717.0, 6719.0, 6576.0, 6679.0, 6802.0, 6765.0, 6764.0, 6753.0, 6555.0, 6789.0, 6760.0, 6761.0, 6765.0, 6767.0, 6763.0, 6755.0, 6752.0, 6740.0, 6724.0, 6703.0, 6701.0, 6701.0, 6704.0, 6712.0, 6706.0, 6716.0, 6719.0, 6729.0, 6737.0, 6729.0, 6718.0, 6717.0, 6726.0, 6701.0, 6727.0, 6729.0, 6728.0, 6723.0, 6722.0, 6729.0, 6730.0, 6720.0, 6723.0, 6719.0, 6719.0, 6729.0, 6720.0, 6697.0, 6752.0, 6742.0, 6752.0, 6743.0, 6742.0, 6740.0, 6729.0, 6733.0, 6746.0, 6737.0, 6745.0, 6742.0, 6733.0, 6740.0, 6731.0, 6729.0, 6718.0, 6718.0, 6709.0, 6720.0, 6729.0, 6722.0, 6722.0, 6722.0, 6721.0, 6728.0, 6709.0, 6717.0, 6716.0, 6574.0, 6770.0, 6739.0, 6733.0, 6736.0, 6690.0, 6455.0, 6763.0, 6724.0, 6720.0, 6708.0, 6644.0, 6503.0, 6781.0, 6746.0, 6740.0, 6742.0, 6741.0, 6518.0, 6761.0, 6764.0, 6730.0, 6734.0, 6678.0, 6454.0, 6832.0, 6784.0, 6762.0, 6766.0, 6769.0, 6769.0, 6778.0, 6776.0, 6774.0, 6750.0, 6747.0, 6728.0, 6740.0, 6733.0, 6745.0, 6743.0, 6744.0, 6740.0, 6740.0, 6747.0, 6739.0, 6738.0, 6719.0, 6719.0, 6646.0, 6746.0, 6728.0, 6731.0, 6739.0, 6665.0, 6518.0, 6762.0, 6720.0, 6718.0, 6709.0, 6700.0, 6700.0, 6609.0, 6644.0, 6726.0, 6729.0, 6714.0, 6733.0, 6629.0, 6514.0, 6765.0, 6727.0, 6712.0, 6702.0, 6672.0, 6746.0, 6753.0, 6753.0, 6767.0, 6768.0, 6778.0, 6769.0, 6769.0, 6758.0, 6754.0, 6743.0, 6743.0, 6744.0, 6743.0, 6744.0, 6743.0, 6743.0, 6733.0],
