{
  "AcquisitionMatrixPE": 104,
  "AcquisitionNumber": 1,
  "AcquisitionTime": "13:10:15.525000",
  "BandwidthPerPixelPhaseEncode": 17.17,
  "BaseResolution": 104,
  "BodyPartExamined": "BRAIN",
  "ConsistencyInfo": "N4_VE11C_LATEST_20160120",
  "ConversionSoftware": "dcm2niix",
  "ConversionSoftwareVersion": "v1.0.20190410  GCC6.3.0",
  "DerivedVendorReportedEchoSpacing": 0.000560011,
  "DeviceSerialNumber": "166018",
  "DwellTime": 2.1e-06,
  "EchoTime": 0.035,
  "EchoTrainLength": 104,
  "EffectiveEchoSpacing": 0.000560011,
  "FlipAngle": 62,
  "ImageComments": "Unaliased_MB4_PE3_LB",
  "ImageOrientationPatientDICOM": [1, 0, 0, 0, 0.999976, 0.00698126],
  "ImageType": [
    "ORIGINAL",
    "PRIMARY",
    "M",
    "MB",
    "ND",
    "MOSAIC"
],
  "ImagingFrequency": 123.191,
  "InPlanePhaseEncodingDirectionDICOM": "COL",
  "InstitutionAddress": "Washington_Place_6_NYC_NYC_US_10003",
  "InstitutionName": "NYU_Center_for_Brain_Imaging",
  "InstitutionalDepartmentName": "Department",
  "MRAcquisitionType": "2D",
  "MagneticFieldStrength": 3,
  "Manufacturer": "Siemens",
  "ManufacturersModelName": "Prisma",
  "Modality": "MR",
  "MultibandAccelerationFactor": 4,
  "PartialFourier": 1,
  "PatientPosition": "HFS",
  "PercentPhaseFOV": 100,
  "PhaseEncodingDirection": "j-",
  "PhaseEncodingSteps": 104,
  "PhaseResolution": 1,
  "PixelBandwidth": 2290,
  "ProcedureStepDescription": "",
  "ProtocolName": "epi_MB4_2mm_motion",
  "PulseSequenceDetails": "%CustomerSeq%_cmrr_mbep2d_bold",
  "ReceiveCoilActiveElements": "HEA;HEP",
  "ReceiveCoilName": "Head_32",
  "ReconMatrixPE": 104,
  "RepetitionTime": 1.3,
  "SAR": 0.0791581,
  "ScanOptions": "FS",
  "ScanningSequence": "EP",
  "SequenceName": "epfid2d1_104",
  "SequenceVariant": "SK_SS",
  "SeriesDescription": "epi_MB4_2mm_motion",
  "SeriesNumber": 5,
  "ShimSetting": [254, -12698, -8424, 487, -69, -197, 46, 24],
  "SliceThickness": 2,
  "SliceTiming": [0, 0.56, 1.12, 0.4, 0.96, 0.24, 0.8, 0.08, 0.64, 1.2, 0.48, 1.04, 0.32, 0.88, 0.16, 0.72, 0, 0.56, 1.12, 0.4, 0.96, 0.24, 0.8, 0.08, 0.64, 1.2, 0.48, 1.04, 0.32, 0.88, 0.16, 0.72, 0, 0.56, 1.12, 0.4, 0.96, 0.24, 0.8, 0.08, 0.64, 1.2, 0.48, 1.04, 0.32, 0.88, 0.16, 0.72, 0, 0.56, 1.12, 0.4, 0.96, 0.24, 0.8, 0.08, 0.64, 1.2, 0.48, 1.04, 0.32, 0.88, 0.16, 0.72],
  "SoftwareVersions": "syngo_MR_E11",
  "SpacingBetweenSlices": 2,
  "StationName": "AWP166018",
  "TaskName": "TASK",
  "TotalReadoutTime": 0.0576811,
  "TxRefAmp": 235.636,
  "WipMemBlock": "a2885e9c-621c-4962-9539-2707c9cc30de||Sequence: R016 ve11c/master r/8780670; Nov 27 2017 15:05:12 by eja",
  "dcmmeta_affine": [
    [-2.0, 0.0, 0.0, 104.0],
    [0.0, 1.9999512434005737, 0.01396252028644085, -89.81405639648438],
    [0.0, -0.01396252028644085, 1.9999512434005737, -38.190895080566406],
    [0.0, 0.0, 0.0, 1.0]
],
  "dcmmeta_reorient_transform": [
    [0.0, -1.0, 0.0, 103.0],
    [1.0, 0.0, 0.0, 0.0],
    [0.0, 0.0, 1.0, 0.0],
    [0.0, 0.0, 0.0, 1.0]
],
  "dcmmeta_shape": [104, 104, 64, 324],
  "dcmmeta_slice_dim": 2,
  "dcmmeta_version": 0.6,
  "global": {
    "const": {
      "AccessionNumber": "jvL5my55",
  "NumberOfVolumes": 324,
      "AcquisitionMatrix": [104, 0, 0, 104],
      "AngioFlag": "N",
      "BitsAllocated": 16,
      "BitsStored": 16,
      "BodyPartExamined": "BRAIN",
      "Columns": 832,
      "EchoNumbers": 1,
      "EchoTime": 35.0,
      "EchoTrainLength": 104,
      "FlipAngle": 62.0,
      "HighBit": 15,
      "ImageOrientationPatient": [1.0, 0.0, 0.0, 0.0, 0.99997563070612, 0.00698126019408],
      "ImagePositionPatient": [-832.0, -844.16318402941, -44.711393100614],
      "ImageType": [
        "ORIGINAL",
        "PRIMARY",
        "M",
        "MB",
        "ND",
        "MOSAIC"
],
      "ImagedNucleus": "1H",
      "ImagingFrequency": 123.191012,
      "InPlanePhaseEncodingDirection": "COL",
      "MRAcquisitionType": "2D",
      "MagneticFieldStrength": 3.0,
      "Manufacturer": "SIEMENS",
      "ManufacturerModelName": "Prisma",
      "Modality": "MR",
      "NumberOfAverages": 1.0,
      "NumberOfPhaseEncodingSteps": 104,
      "PercentPhaseFieldOfView": 100.0,
      "PercentSampling": 100.0,
      "PerformedProcedureStepStartTime": "122220.235000",
      "PhotometricInterpretation": "MONOCHROME2",
      "PixelBandwidth": 2290.0,
      "PixelRepresentation": 0,
      "PixelSpacing": [2.0, 2.0],
      "ProtocolName": "epi_MB4_2mm_motion",
      "RepetitionTime": 1300.0,
      "Rows": 832,
      "SAR": 0.07915813130595,
      "SamplesPerPixel": 1,
      "ScanOptions": "FS",
      "ScanningSequence": "EP",
      "SequenceName": "epfid2d1_104",
      "SequenceVariant": [
        "SK",
        "SS"
],
      "SeriesDescription": "epi_MB4_2mm_motion",
      "SeriesNumber": 5,
      "SeriesTime": "131035.063000",
      "SliceLocation": -38.816980681565,
      "SliceThickness": 2.0,
      "SmallestImagePixelValue": 0,
      "SoftwareVersions": "syngo MR E11",
      "SpacingBetweenSlices": 1.9999999346722,
      "SpecificCharacterSet": "ISO_IR 100",
      "StudyID": "1",
      "StudyTime": "122220.035000",
      "TransmitCoilName": "Body",
      "VariableFlipAngleFlag": "N",
      "WindowCenterWidthExplanation": "Algo1",
      "dBdt": 0.0},
    "slices": {}
  },
  "time": {
    "samples": {
      "AcquisitionNumber": [1, 2, 3, 4, 5, 6, 7, 8, 9, 10, 11, 12, 13, 14, 15, 16, 17, 18, 19, 20, 21, 22, 23, 24, 25, 26, 27, 28, 29, 30, 31, 32, 33, 34, 35, 36, 37, 38, 39, 40, 41, 42, 43, 44, 45, 46, 47, 48, 49, 50, 51, 52, 53, 54, 55, 56, 57, 58, 59, 60, 61, 62, 63, 64, 65, 66, 67, 68, 69, 70, 71, 72, 73, 74, 75, 76, 77, 78, 79, 80, 81, 82, 83, 84, 85, 86, 87, 88, 89, 90, 91, 92, 93, 94, 95, 96, 97, 98, 99, 100, 101, 102, 103, 104, 105, 106, 107, 108, 109, 110, 111, 112, 113, 114, 115, 116, 117, 118, 119, 120, 121, 122, 123, 124, 125, 126, 127, 128, 129, 130, 131, 132, 133, 134, 135, 136, 137, 138, 139, 140, 141, 142, 143, 144, 145, 146, 147, 148, 149, 150, 151, 152, 153, 154, 155, 156, 157, 158, 159, 160, 161, 162, 163, 164, 165, 166, 167, 168, 169, 170, 171, 172, 173, 174, 175, 176, 177, 178, 179, 180, 181, 182, 183, 184, 185, 186, 187, 188, 189, 190, 191, 192, 193, 194, 195, 196, 197, 198, 199, 200, 201, 202, 203, 204, 205, 206, 207, 208, 209, 210, 211, 212, 213, 214, 215, 216, 217, 218, 219, 220, 221, 222, 223, 224, 225, 226, 227, 228, 229, 230, 231, 232, 233, 234, 235, 236, 237, 238, 239, 240, 241, 242, 243, 244, 245, 246, 247, 248, 249, 250, 251, 252, 253, 254, 255, 256, 257, 258, 259, 260, 261, 262, 263, 264, 265, 266, 267, 268, 269, 270, 271, 272, 273, 274, 275, 276, 277, 278, 279, 280, 281, 282, 283, 284, 285, 286, 287, 288, 289, 290, 291, 292, 293, 294, 295, 296, 297, 298, 299, 300, 301, 302, 303, 304, 305, 306, 307, 308, 309, 310, 311, 312, 313, 314, 315, 316, 317, 318, 319, 320, 321, 322, 323, 324],
      "AcquisitionTime": ["131015.525000", "131016.825000", "131018.125000", "131019.425000", "131020.725000", "131022.025000", "131023.325000", "131024.625000", "131025.925000", "131027.225000", "131028.525000", "131029.825000", "131031.125000", "131032.425000", "131033.725000", "131035.025000", "131036.325000", "131037.625000", "131038.925000", "131040.225000", "131041.525000", "131042.825000", "131044.125000", "131045.425000", "131046.725000", "131048.025000", "131049.325000", "131050.625000", "131051.925000", "131053.225000", "131054.525000", "131055.825000", "131057.125000", "131058.425000", "131059.725000", "131101.025000", "131102.325000", "131103.625000", "131104.925000", "131106.225000", "131107.525000", "131108.825000", "131110.125000", "131111.425000", "131112.725000", "131114.025000", "131115.325000", "131116.625000", "131117.925000", "131119.225000", "131120.525000", "131121.825000", "131123.125000", "131124.425000", "131125.725000", "131127.025000", "131128.325000", "131129.625000", "131130.925000", "131132.225000", "131133.525000", "131134.825000", "131136.125000", "131137.425000", "131138.725000", "131140.025000", "131141.325000", "131142.625000", "131143.925000", "131145.225000", "131146.525000", "131147.825000", "131149.125000", "131150.425000", "131151.725000", "131153.025000", "131154.325000", "131155.625000", "131156.925000", "131158.225000", "131159.525000", "131200.825000", "131202.125000", "131203.425000", "131204.725000", "131206.025000", "131207.325000", "131208.625000", "131209.925000", "131211.225000", "131212.525000", "131213.825000", "131215.125000", "131216.425000", "131217.725000", "131219.025000", "131220.325000", "131221.625000", "131222.925000", "131224.225000", "131225.525000", "131226.825000", "131228.125000", "131229.425000", "131230.725000", "131232.025000", "131233.325000", "131234.625000", "131235.925000", "131237.225000", "131238.525000", "131239.825000", "131241.125000", "131242.425000", "131243.725000", "131245.025000", "131246.325000", "131247.625000", "131248.925000", "131250.225000", "131251.525000", "131252.825000", "131254.125000", "131255.425000", "131256.725000", "131258.025000", "131259.325000", "131300.625000", "131301.925000", "131303.225000", "131304.525000", "131305.825000", "131307.125000", "131308.425000", "131309.725000", "131311.025000", "131312.325000", "131313.625000", "131314.925000", "131316.225000", "131317.525000", "131318.825000", "131320.125000", "131321.425000", "131322.725000", "131324.025000", "131325.325000", "131326.625000", "131327.925000", "131329.225000", "131330.525000", "131331.825000", "131333.125000", "131334.425000", "131335.725000", "131337.025000", "131338.325000", "131339.625000", "131340.925000", "131342.225000", "131343.525000", "131344.825000", "131346.125000", "131347.425000", "131348.725000", "131350.025000", "131351.325000", "131352.625000", "131353.925000", "131355.225000", "131356.525000", "131357.825000", "131359.125000", "131400.425000", "131401.725000", "131403.025000", "131404.325000", "131405.625000", "131406.925000", "131408.225000", "131409.525000", "131410.825000", "131412.125000", "131413.425000", "131414.725000", "131416.025000", "131417.325000", "131418.625000", "131419.925000", "131421.225000", "131422.525000", "131423.825000", "131425.125000", "131426.425000", "131427.725000", "131429.025000", "131430.325000", "131431.625000", "131432.925000", "131434.225000", "131435.525000", "131436.825000", "131438.125000", "131439.425000", "131440.725000", "131442.025000", "131443.325000", "131444.625000", "131445.925000", "131447.225000", "131448.525000", "131449.825000", "131451.125000", "131452.425000", "131453.725000", "131455.025000", "131456.325000", "131457.625000", "131458.925000", "131500.225000", "131501.525000", "131502.825000", "131504.125000", "131505.425000", "131506.725000", "131508.025000", "131509.325000", "131510.625000", "131511.925000", "131513.225000", "131514.525000", "131515.825000", "131517.125000", "131518.425000", "131519.725000", "131521.025000", "131522.325000", "131523.625000", "131524.925000", "131526.225000", "131527.525000", "131528.825000", "131530.125000", "131531.425000", "131532.725000", "131534.025000", "131535.325000", "131536.625000", "131537.925000", "131539.225000", "131540.525000", "131541.825000", "131543.125000", "131544.425000", "131545.725000", "131547.025000", "131548.325000", "131549.625000", "131550.925000", "131552.225000", "131553.525000", "131554.825000", "131556.125000", "131557.425000", "131558.725000", "131600.025000", "131601.325000", "131602.625000", "131603.925000", "131605.225000", "131606.525000", "131607.825000", "131609.125000", "131610.425000", "131611.725000", "131613.025000", "131614.325000", "131615.625000", "131616.925000", "131618.225000", "131619.525000", "131620.825000", "131622.125000", "131623.425000", "131624.725000", "131626.025000", "131627.325000", "131628.625000", "131629.925000", "131631.225000", "131632.525000", "131633.825000", "131635.125000", "131636.425000", "131637.725000", "131639.025000", "131640.325000", "131641.625000", "131642.925000", "131644.225000", "131645.525000", "131646.825000", "131648.125000", "131649.425000", "131650.725000", "131652.025000", "131653.325000", "131654.625000", "131655.925000", "131657.225000", "131658.525000", "131659.825000", "131701.125000", "131702.425000", "131703.725000", "131705.025000", "131706.325000", "131707.625000", "131708.925000", "131710.225000", "131711.525000", "131712.825000", "131714.125000", "131715.425000"],
      "ContentTime": ["131035.066000", "131035.069000", "131035.072000", "131040.034000", "131040.037000", "131040.040000", "131040.043000", "131040.046000", "131040.049000", "131040.051000", "131040.054000", "131040.057000", "131040.060000", "131045.035000", "131045.038000", "131045.041000", "131045.044000", "131045.047000", "131045.050000", "131045.052000", "131045.055000", "131045.058000", "131050.035000", "131050.038000", "131050.041000", "131050.044000", "131055.035000", "131055.038000", "131055.041000", "131055.044000", "131100.034000", "131100.037000", "131100.040000", "131100.043000", "131105.035000", "131105.038000", "131105.041000", "131110.035000", "131110.038000", "131110.041000", "131110.044000", "131115.034000", "131115.037000", "131115.040000", "131115.043000", "131120.035000", "131120.038000", "131120.041000", "131120.044000", "131125.035000", "131125.038000", "131125.041000", "131125.044000", "131130.035000", "131130.038000", "131130.041000", "131130.044000", "131135.034000", "131135.037000", "131135.040000", "131140.035000", "131140.038000", "131140.041000", "131140.044000", "131145.035000", "131145.038000", "131145.041000", "131145.044000", "131150.034000", "131150.037000", "131150.040000", "131150.043000", "131155.035000", "131155.038000", "131155.041000", "131155.044000", "131200.035000", "131200.038000", "131200.041000", "131200.044000", "131205.035000", "131205.038000", "131205.041000", "131205.044000", "131210.034000", "131210.037000", "131210.040000", "131215.035000", "131215.038000", "131215.041000", "131215.044000", "131220.035000", "131220.038000", "131220.041000", "131220.044000", "131225.034000", "131225.037000", "131225.040000", "131225.043000", "131230.035000", "131230.038000", "131230.041000", "131230.044000", "131235.035000", "131235.038000", "131235.041000", "131235.044000", "131240.035000", "131240.038000", "131240.041000", "131245.034000", "131245.037000", "131245.040000", "131245.043000", "131250.035000", "131250.038000", "131250.041000", "131250.044000", "131255.035000", "131255.038000", "131255.041000", "131255.044000", "131300.034000", "131300.037000", "131300.040000", "131300.043000", "131305.035000", "131305.038000", "131305.041000", "131305.044000", "131310.035000", "131310.038000", "131310.041000", "131310.044000", "131315.035000", "131315.038000", "131315.041000", "131320.034000", "131320.037000", "131320.040000", "131320.043000", "131325.035000", "131325.038000", "131325.041000", "131325.044000", "131330.035000", "131330.038000", "131330.041000", "131330.044000", "131335.034000", "131335.037000", "131335.040000", "131335.043000", "131340.035000", "131340.038000", "131340.041000", "131340.044000", "131345.035000", "131345.038000", "131345.054000", "131350.035000", "131350.038000", "131350.041000", "131350.044000", "131355.034000", "131355.037000", "131355.040000", "131355.043000", "131400.035000", "131400.038000", "131400.041000", "131400.044000", "131405.035000", "131405.038000", "131405.041000", "131405.044000", "131410.034000", "131410.037000", "131410.040000", "131410.042000", "131415.035000", "131415.038000", "131415.041000", "131415.043000", "131420.035000", "131420.038000", "131420.041000", "131425.035000", "131425.038000", "131425.041000", "131425.044000", "131430.034000", "131430.037000", "131430.040000", "131430.043000", "131435.035000", "131435.038000", "131435.041000", "131435.059000", "131440.035000", "131440.038000", "131440.041000", "131440.044000", "131445.034000", "131445.037000", "131445.040000", "131445.043000", "131450.035000", "131450.038000", "131450.041000", "131455.035000", "131455.038000", "131455.041000", "131455.044000", "131500.035000", "131500.038000", "131500.041000", "131500.044000", "131505.034000", "131505.037000", "131505.040000", "131505.043000", "131510.035000", "131510.038000", "131510.041000", "131510.044000", "131515.035000", "131515.038000", "131515.041000", "131515.044000", "131520.034000", "131520.037000", "131520.040000", "131520.043000", "131525.035000", "131525.038000", "131525.041000", "131530.035000", "131530.038000", "131530.041000", "131530.044000", "131535.035000", "131535.038000", "131535.041000", "131535.044000", "131540.034000", "131540.037000", "131540.040000", "131540.043000", "131545.035000", "131545.038000", "131545.041000", "131545.044000", "131550.035000", "131550.038000", "131550.041000", "131550.044000", "131555.034000", "131555.037000", "131555.040000", "131600.035000", "131600.038000", "131600.041000", "131600.044000", "131605.035000", "131605.038000", "131605.041000", "131605.044000", "131610.035000", "131610.038000", "131610.041000", "131610.044000", "131615.034000", "131615.037000", "131615.040000", "131615.043000", "131620.035000", "131620.038000", "131620.041000", "131620.043000", "131625.035000", "131625.038000", "131625.041000", "131625.044000", "131630.034000", "131630.037000", "131630.040000", "131635.035000", "131635.038000", "131635.041000", "131635.044000", "131640.035000", "131640.038000", "131640.041000", "131640.044000", "131645.035000", "131645.038000", "131645.041000", "131645.044000", "131650.034000", "131650.037000", "131650.040000", "131650.043000", "131655.035000", "131655.038000", "131655.041000", "131655.044000", "131700.035000", "131700.038000", "131700.041000", "131705.034000", "131705.037000", "131705.040000", "131705.043000", "131710.035000", "131710.038000", "131710.041000", "131710.044000", "131715.035000", "131715.038000", "131715.041000", "131715.044000", "131717.060000", "131717.063000"],
      "InstanceCreationTime": ["131035.066000", "131035.069000", "131035.072000", "131040.034000", "131040.037000", "131040.040000", "131040.043000", "131040.046000", "131040.049000", "131040.051000", "131040.054000", "131040.057000", "131040.060000", "131045.035000", "131045.038000", "131045.041000", "131045.044000", "131045.047000", "131045.050000", "131045.052000", "131045.055000", "131045.058000", "131050.035000", "131050.038000", "131050.041000", "131050.044000", "131055.035000", "131055.038000", "131055.041000", "131055.044000", "131100.034000", "131100.037000", "131100.040000", "131100.043000", "131105.035000", "131105.038000", "131105.041000", "131110.035000", "131110.038000", "131110.041000", "131110.044000", "131115.034000", "131115.037000", "131115.040000", "131115.043000", "131120.035000", "131120.038000", "131120.041000", "131120.044000", "131125.035000", "131125.038000", "131125.041000", "131125.044000", "131130.035000", "131130.038000", "131130.041000", "131130.044000", "131135.034000", "131135.037000", "131135.040000", "131140.035000", "131140.038000", "131140.041000", "131140.044000", "131145.035000", "131145.038000", "131145.041000", "131145.044000", "131150.034000", "131150.037000", "131150.040000", "131150.043000", "131155.035000", "131155.038000", "131155.041000", "131155.044000", "131200.035000", "131200.038000", "131200.041000", "131200.044000", "131205.035000", "131205.038000", "131205.041000", "131205.044000", "131210.034000", "131210.037000", "131210.040000", "131215.035000", "131215.038000", "131215.041000", "131215.044000", "131220.035000", "131220.038000", "131220.041000", "131220.044000", "131225.034000", "131225.037000", "131225.040000", "131225.043000", "131230.035000", "131230.038000", "131230.041000", "131230.044000", "131235.035000", "131235.038000", "131235.041000", "131235.044000", "131240.035000", "131240.038000", "131240.041000", "131245.034000", "131245.037000", "131245.040000", "131245.043000", "131250.035000", "131250.038000", "131250.041000", "131250.044000", "131255.035000", "131255.038000", "131255.041000", "131255.044000", "131300.034000", "131300.037000", "131300.040000", "131300.043000", "131305.035000", "131305.038000", "131305.041000", "131305.044000", "131310.035000", "131310.038000", "131310.041000", "131310.044000", "131315.035000", "131315.038000", "131315.041000", "131320.034000", "131320.037000", "131320.040000", "131320.043000", "131325.035000", "131325.038000", "131325.041000", "131325.044000", "131330.035000", "131330.038000", "131330.041000", "131330.044000", "131335.034000", "131335.037000", "131335.040000", "131335.043000", "131340.035000", "131340.038000", "131340.041000", "131340.044000", "131345.035000", "131345.038000", "131345.054000", "131350.035000", "131350.038000", "131350.041000", "131350.044000", "131355.034000", "131355.037000", "131355.040000", "131355.043000", "131400.035000", "131400.038000", "131400.041000", "131400.044000", "131405.035000", "131405.038000", "131405.041000", "131405.044000", "131410.034000", "131410.037000", "131410.040000", "131410.042000", "131415.035000", "131415.038000", "131415.041000", "131415.043000", "131420.035000", "131420.038000", "131420.041000", "131425.035000", "131425.038000", "131425.041000", "131425.044000", "131430.034000", "131430.037000", "131430.040000", "131430.043000", "131435.035000", "131435.038000", "131435.041000", "131435.059000", "131440.035000", "131440.038000", "131440.041000", "131440.044000", "131445.034000", "131445.037000", "131445.040000", "131445.043000", "131450.035000", "131450.038000", "131450.041000", "131455.035000", "131455.038000", "131455.041000", "131455.044000", "131500.035000", "131500.038000", "131500.041000", "131500.044000", "131505.034000", "131505.037000", "131505.040000", "131505.043000", "131510.035000", "131510.038000", "131510.041000", "131510.044000", "131515.035000", "131515.038000", "131515.041000", "131515.044000", "131520.034000", "131520.037000", "131520.040000", "131520.043000", "131525.035000", "131525.038000", "131525.041000", "131530.035000", "131530.038000", "131530.041000", "131530.044000", "131535.035000", "131535.038000", "131535.041000", "131535.044000", "131540.034000", "131540.037000", "131540.040000", "131540.043000", "131545.035000", "131545.038000", "131545.041000", "131545.044000", "131550.035000", "131550.038000", "131550.041000", "131550.044000", "131555.034000", "131555.037000", "131555.040000", "131600.035000", "131600.038000", "131600.041000", "131600.044000", "131605.035000", "131605.038000", "131605.041000", "131605.044000", "131610.035000", "131610.038000", "131610.041000", "131610.044000", "131615.034000", "131615.037000", "131615.040000", "131615.043000", "131620.035000", "131620.038000", "131620.041000", "131620.043000", "131625.035000", "131625.038000", "131625.041000", "131625.044000", "131630.034000", "131630.037000", "131630.040000", "131635.035000", "131635.038000", "131635.041000", "131635.044000", "131640.035000", "131640.038000", "131640.041000", "131640.044000", "131645.035000", "131645.038000", "131645.041000", "131645.044000", "131650.034000", "131650.037000", "131650.040000", "131650.043000", "131655.035000", "131655.038000", "131655.041000", "131655.044000", "131700.035000", "131700.038000", "131700.041000", "131705.034000", "131705.037000", "131705.040000", "131705.043000", "131710.035000", "131710.038000", "131710.041000", "131710.044000", "131715.035000", "131715.038000", "131715.041000", "131715.044000", "131717.060000", "131717.063000"],
      "InstanceNumber": [1, 2, 3, 4, 5, 6, 7, 8, 9, 10, 11, 12, 13, 14, 15, 16, 17, 18, 19, 20, 21, 22, 23, 24, 25, 26, 27, 28, 29, 30, 31, 32, 33, 34, 35, 36, 37, 38, 39, 40, 41, 42, 43, 44, 45, 46, 47, 48, 49, 50, 51, 52, 53, 54, 55, 56, 57, 58, 59, 60, 61, 62, 63, 64, 65, 66, 67, 68, 69, 70, 71, 72, 73, 74, 75, 76, 77, 78, 79, 80, 81, 82, 83, 84, 85, 86, 87, 88, 89, 90, 91, 92, 93, 94, 95, 96, 97, 98, 99, 100, 101, 102, 103, 104, 105, 106, 107, 108, 109, 110, 111, 112, 113, 114, 115, 116, 117, 118, 119, 120, 121, 122, 123, 124, 125, 126, 127, 128, 129, 130, 131, 132, 133, 134, 135, 136, 137, 138, 139, 140, 141, 142, 143, 144, 145, 146, 147, 148, 149, 150, 151, 152, 153, 154, 155, 156, 157, 158, 159, 160, 161, 162, 163, 164, 165, 166, 167, 168, 169, 170, 171, 172, 173, 174, 175, 176, 177, 178, 179, 180, 181, 182, 183, 184, 185, 186, 187, 188, 189, 190, 191, 192, 193, 194, 195, 196, 197, 198, 199, 200, 201, 202, 203, 204, 205, 206, 207, 208, 209, 210, 211, 212, 213, 214, 215, 216, 217, 218, 219, 220, 221, 222, 223, 224, 225, 226, 227, 228, 229, 230, 231, 232, 233, 234, 235, 236, 237, 238, 239, 240, 241, 242, 243, 244, 245, 246, 247, 248, 249, 250, 251, 252, 253, 254, 255, 256, 257, 258, 259, 260, 261, 262, 263, 264, 265, 266, 267, 268, 269, 270, 271, 272, 273, 274, 275, 276, 277, 278, 279, 280, 281, 282, 283, 284, 285, 286, 287, 288, 289, 290, 291, 292, 293, 294, 295, 296, 297, 298, 299, 300, 301, 302, 303, 304, 305, 306, 307, 308, 309, 310, 311, 312, 313, 314, 315, 316, 317, 318, 319, 320, 321, 322, 323, 324],
      "LargestImagePixelValue": [19102, 18878, 18727, 18441, 18467, 18402, 18176, 18115, 18207, 18015, 17945, 18070, 17977, 17914, 18004, 17974, 18090, 17957, 17921, 17751, 17879, 17900, 17740, 17831, 18013, 17780, 17808, 17713, 17738, 17604, 18012, 18025, 17687, 17046, 17114, 16447, 16628, 16724, 17588, 17755, 17563, 17372, 17344, 17314, 17616, 17219, 17173, 17479, 18083, 18111, 19669, 18849, 19027, 18754, 18767, 19142, 19102, 18961, 18950, 19079, 18926, 19067, 18956, 19033, 19055, 19190, 19277, 18953, 19452, 19263, 18895, 18910, 18530, 17908, 16960, 16476, 17223, 17494, 17270, 18020, 17567, 18688, 17760, 15896, 17210, 17151, 18810, 17300, 16669, 15852, 16018, 16455, 17132, 17768, 17402, 17225, 17270, 19050, 17425, 16906, 16494, 16328, 16521, 16451, 16347, 16693, 16697, 16615, 16843, 16876, 16901, 16983, 17048, 17214, 17172, 17321, 17215, 17286, 17407, 17381, 17564, 17460, 16938, 17960, 17536, 17441, 17831, 17741, 17340, 17536, 17264, 17107, 16821, 16854, 16647, 16607, 18062, 17959, 17751, 17084, 17478, 17280, 17168, 17323, 15683, 15444, 15473, 15963, 17774, 17040, 16833, 16800, 16594, 16643, 16782, 16780, 16640, 16699, 16691, 16756, 16706, 16694, 16628, 16621, 16616, 16481, 16574, 16667, 16753, 16854, 16644, 16698, 16884, 16657, 16476, 17003, 15817, 16710, 16689, 16947, 16973, 17288, 18108, 18803, 18820, 18681, 17569, 17363, 18173, 18473, 18280, 17713, 15684, 19665, 17649, 16158, 16085, 16183, 16399, 16387, 16391, 16503, 16243, 16468, 16509, 16464, 16388, 16486, 16393, 16332, 16296, 16380, 16262, 16234, 16456, 16264, 15770, 17120, 16628, 16273, 16329, 16325, 15667, 17853, 17465, 17335, 17104, 17551, 18117, 16037, 15499, 15469, 15642, 16044, 16546, 17163, 17244, 17164, 17153, 17916, 16234, 18861, 17405, 17679, 17333, 17458, 17177, 17349, 17390, 17653, 17865, 17646, 17472, 17636, 17294, 17321, 17306, 17227, 17400, 17259, 17420, 17082, 17084, 17277, 16977, 16931, 20065, 18627, 17758, 17495, 17129, 15258, 18116, 17119, 15948, 15924, 16000, 16160, 16622, 17890, 18109, 17880, 17303, 16911, 17254, 16614, 21617, 19045, 19572, 19055, 18648, 18619, 18188, 17837, 18035, 18365, 19533, 20371, 20481, 22346, 21511, 20716, 19161, 21503, 21009, 20514, 20141, 20513, 19782, 19921, 19921, 20116, 19912, 19986, 19773, 19806, 19861, 20115, 20015, 19924, 19739, 19940, 19706, 19976],
      "WindowCenter": [6094.0, 6079.0, 6078.0, 6068.0, 6069.0, 6069.0, 6069.0, 6069.0, 6059.0, 6071.0, 6061.0, 6059.0, 6060.0, 6061.0, 6059.0, 6049.0, 6056.0, 6058.0, 6059.0, 6050.0, 6071.0, 6061.0, 6050.0, 6060.0, 6070.0, 6070.0, 6071.0, 6062.0, 6063.0, 6061.0, 6058.0, 6074.0, 6062.0, 6046.0, 6032.0, 6022.0, 6031.0, 6018.0, 5978.0, 6117.0, 6100.0, 6091.0, 6090.0, 6066.0, 5942.0, 6073.0, 6056.0, 6044.0, 6050.0, 6025.0, 6068.0, 6058.0, 6060.0, 6085.0, 6075.0, 6083.0, 6084.0, 6074.0, 6073.0, 6084.0, 6097.0, 6107.0, 6096.0, 6086.0, 6085.0, 6094.0, 6093.0, 6097.0, 6107.0, 6107.0, 6111.0, 6098.0, 6088.0, 5996.0, 5837.0, 5959.0, 5989.0, 5997.0, 5990.0, 5883.0, 5909.0, 6040.0, 5921.0, 5711.0, 5964.0, 5869.0, 5941.0, 5999.0, 5966.0, 5944.0, 5943.0, 5854.0, 5856.0, 6082.0, 6032.0, 6044.0, 6035.0, 5946.0, 5868.0, 6074.0, 6025.0, 6014.0, 6022.0, 6014.0, 6014.0, 6022.0, 6021.0, 6022.0, 6030.0, 6031.0, 6031.0, 6021.0, 6021.0, 6029.0, 6030.0, 6028.0, 6029.0, 6030.0, 6028.0, 6019.0, 6026.0, 6026.0, 5918.0, 6027.0, 6030.0, 6031.0, 6042.0, 6032.0, 5855.0, 5978.0, 5976.0, 5953.0, 5980.0, 5979.0, 5970.0, 5891.0, 5882.0, 6040.0, 6030.0, 6020.0, 6068.0, 5934.0, 5844.0, 6017.0, 5953.0, 5943.0, 5942.0, 5875.0, 6009.0, 5990.0, 6012.0, 6028.0, 6032.0, 6019.0, 6003.0, 5980.0, 5980.0, 5991.0, 5981.0, 5991.0, 6002.0, 5993.0, 5992.0, 5991.0, 5992.0, 6004.0, 6004.0, 6005.0, 6005.0, 6013.0, 6004.0, 5989.0, 5976.0, 6000.0, 5986.0, 6012.0, 5941.0, 5998.0, 6009.0, 6018.0, 6004.0, 5980.0, 6080.0, 6086.0, 6078.0, 6067.0, 5990.0, 5965.0, 6022.0, 6017.0, 5978.0, 5973.0, 5731.0, 6026.0, 5996.0, 5972.0, 5972.0, 5982.0, 5983.0, 5993.0, 5995.0, 6006.0, 5996.0, 5994.0, 6002.0, 5994.0, 5995.0, 6004.0, 5996.0, 5993.0, 5993.0, 5994.0, 5994.0, 6006.0, 6006.0, 6006.0, 5877.0, 5977.0, 5979.0, 5959.0, 5959.0, 5957.0, 5808.0, 6013.0, 6042.0, 6031.0, 6032.0, 6041.0, 5828.0, 5977.0, 5952.0, 5942.0, 5939.0, 5947.0, 5821.0, 5986.0, 6041.0, 6038.0, 6027.0, 6033.0, 5801.0, 6019.0, 5991.0, 6003.0, 6006.0, 6018.0, 6008.0, 5997.0, 5996.0, 6004.0, 6015.0, 6004.0, 6014.0, 6025.0, 6030.0, 6030.0, 6029.0, 6007.0, 5993.0, 5991.0, 5980.0, 5980.0, 5981.0, 5992.0, 5993.0, 5847.0, 6056.0, 6014.0, 6006.0, 6007.0, 5939.0, 5775.0, 6034.0, 5977.0, 5957.0, 5959.0, 5960.0, 5969.0, 5900.0, 5985.0, 6072.0, 6062.0, 6052.0, 6054.0, 6028.0, 5871.0, 6172.0, 6108.0, 6154.0, 6157.0, 6044.0, 6158.0, 6134.0, 6127.0, 6136.0, 6158.0, 6178.0, 6189.0, 6101.0, 6153.0, 6259.0, 6238.0, 6119.0, 6211.0, 6319.0, 6269.0, 6250.0, 6257.0, 6251.0, 6251.0, 6228.0, 6224.0, 6225.0, 6226.0, 6226.0, 6229.0, 6237.0, 6238.0, 6239.0, 6230.0, 6230.0, 6239.0, 6241.0, 6242.0],
