{
  "AcquisitionMatrixPE": 104,
  "AcquisitionNumber": 1,
  "AcquisitionTime": "20:00:38.650000",
  "BandwidthPerPixelPhaseEncode": 17.17,
  "BaseResolution": 104,
  "BodyPartExamined": "BRAIN",
  "ConsistencyInfo": "N4_VE11C_LATEST_20160120",
  "ConversionSoftware": "dcm2niix",
  "ConversionSoftwareVersion": "v1.0.20190410  GCC6.3.0",
  "DerivedVendorReportedEchoSpacing": 0.000560011,
  "DeviceSerialNumber": "166018",
  "DwellTime": 2.1e-06,
  "EchoTime": 0.035,
  "EchoTrainLength": 104,
  "EffectiveEchoSpacing": 0.000560011,
  "FlipAngle": 62,
  "ImageComments": "Unaliased_MB4_PE3_LB",
  "ImageOrientationPatientDICOM": [1, 0, 0, 0, 0.999986, 0.00523596],
  "ImageType": [
    "ORIGINAL",
    "PRIMARY",
    "M",
    "MB",
    "ND",
    "MOSAIC"
],
  "ImagingFrequency": 123.191,
  "InPlanePhaseEncodingDirectionDICOM": "COL",
  "InstitutionAddress": "Washington_Place_6_NYC_NYC_US_10003",
  "InstitutionName": "NYU_-_CBI",
  "InstitutionalDepartmentName": "Department",
  "MRAcquisitionType": "2D",
  "MagneticFieldStrength": 3,
  "Manufacturer": "Siemens",
  "ManufacturersModelName": "Prisma",
  "Modality": "MR",
  "MultibandAccelerationFactor": 4,
  "PartialFourier": 1,
  "PatientPosition": "HFS",
  "PercentPhaseFOV": 100,
  "PhaseEncodingDirection": "j-",
  "PhaseEncodingSteps": 104,
  "PhaseResolution": 1,
  "PixelBandwidth": 2290,
  "ProcedureStepDescription": "",
  "ProtocolName": "epi_MB4_2mm_motion",
  "PulseSequenceDetails": "%CustomerSeq%_cmrr_mbep2d_bold",
  "ReceiveCoilActiveElements": "HEA;HEP",
  "ReceiveCoilName": "Head_32",
  "ReconMatrixPE": 104,
  "RepetitionTime": 1.3,
  "SAR": 0.0798623,
  "ScanOptions": "FS",
  "ScanningSequence": "EP",
  "SequenceName": "epfid2d1_104",
  "SequenceVariant": "SK_SS",
  "SeriesDescription": "epi_MB4_2mm_motion",
  "SeriesNumber": 5,
  "ShimSetting": [233, -12679, -8431, 294, 21, -251, 16, 55],
  "SliceThickness": 2,
  "SliceTiming": [0, 0.56, 1.12, 0.4, 0.96, 0.24, 0.8, 0.08, 0.64, 1.2, 0.48, 1.04, 0.32, 0.88, 0.16, 0.72, 0, 0.56, 1.12, 0.4, 0.96, 0.24, 0.8, 0.08, 0.64, 1.2, 0.48, 1.04, 0.32, 0.88, 0.16, 0.72, 0, 0.56, 1.12, 0.4, 0.96, 0.24, 0.8, 0.08, 0.64, 1.2, 0.48, 1.04, 0.32, 0.88, 0.16, 0.72, 0, 0.56, 1.12, 0.4, 0.96, 0.24, 0.8, 0.08, 0.64, 1.2, 0.48, 1.04, 0.32, 0.88, 0.16, 0.72],
  "SoftwareVersions": "syngo_MR_E11",
  "SpacingBetweenSlices": 2,
  "StationName": "AWP166018",
  "TaskName": "TASK",
  "TotalReadoutTime": 0.0576811,
  "TxRefAmp": 221.329,
  "WipMemBlock": "47c07e85-3aaa-4743-a810-627fe4e0df5f||Sequence: R016 ve11c/master r/8780670; Nov 27 2017 15:05:12 by eja",
  "dcmmeta_affine": [
    [-2.0, 0.0, 0.0, 104.0],
    [0.0, 1.9999725818634033, 0.010471927002072334, -91.55579376220703],
    [0.0, -0.010471927002072334, 1.9999725818634033, -22.33103370666504],
    [0.0, 0.0, 0.0, 1.0]
],
  "dcmmeta_reorient_transform": [
    [0.0, -1.0, 0.0, 103.0],
    [1.0, 0.0, 0.0, 0.0],
    [0.0, 0.0, 1.0, 0.0],
    [0.0, 0.0, 0.0, 1.0]
],
  "dcmmeta_shape": [104, 104, 64, 324],
  "dcmmeta_slice_dim": 2,
  "dcmmeta_version": 0.6,
  "global": {
    "const": {
      "AccessionNumber": "jucx6i2e",
  "NumberOfVolumes": 324,
      "AcquisitionMatrix": [104, 0, 0, 104],
      "AngioFlag": "N",
      "BitsAllocated": 16,
      "BitsStored": 16,
      "BodyPartExamined": "BRAIN",
      "Columns": 832,
      "EchoNumbers": 1,
      "EchoTime": 35.0,
      "EchoTrainLength": 104,
      "FlipAngle": 62.0,
      "HighBit": 15,
      "ImageOrientationPatient": [1.0, 0.0, 0.0, 0.0, 0.99998629224893, 0.00523596354377],
      "ImagePositionPatient": [-832.0, -842.4314052097, -27.22142443636],
      "ImageType": [
        "ORIGINAL",
        "PRIMARY",
        "M",
        "MB",
        "ND",
        "MOSAIC"
],
      "ImagedNucleus": "1H",
      "ImagingFrequency": 123.190972,
      "InPlanePhaseEncodingDirection": "COL",
      "MRAcquisitionType": "2D",
      "MagneticFieldStrength": 3.0,
      "Manufacturer": "SIEMENS",
      "ManufacturerModelName": "Prisma",
      "Modality": "MR",
      "NumberOfAverages": 1.0,
      "NumberOfPhaseEncodingSteps": 104,
      "PercentPhaseFieldOfView": 100.0,
      "PercentSampling": 100.0,
      "PerformedProcedureStepStartTime": "193055.147000",
      "PhotometricInterpretation": "MONOCHROME2",
      "PixelBandwidth": 2290.0,
      "PixelRepresentation": 0,
      "PixelSpacing": [2.0, 2.0],
      "ProtocolName": "epi_MB4_2mm_motion",
      "RepetitionTime": 1300.0,
      "Rows": 832,
      "SAR": 0.07986230511729,
      "SamplesPerPixel": 1,
      "ScanOptions": "FS",
      "ScanningSequence": "EP",
      "SequenceName": "epfid2d1_104",
      "SequenceVariant": [
        "SK",
        "SS"
],
      "SeriesDescription": "epi_MB4_2mm_motion",
      "SeriesNumber": 5,
      "SeriesTime": "200058.596000",
      "SliceLocation": -22.810111166046,
      "SliceThickness": 2.0,
      "SmallestImagePixelValue": 0,
      "SoftwareVersions": "syngo MR E11",
      "SpacingBetweenSlices": 2.0000000163255,
      "SpecificCharacterSet": "ISO_IR 100",
      "StudyID": "1",
      "StudyTime": "193055.038000",
      "TransmitCoilName": "Body",
      "VariableFlipAngleFlag": "N",
      "WindowCenterWidthExplanation": "Algo1",
      "dBdt": 0.0},
    "slices": {}
  },
  "time": {
    "samples": {
      "AcquisitionNumber": [1, 2, 3, 4, 5, 6, 7, 8, 9, 10, 11, 12, 13, 14, 15, 16, 17, 18, 19, 20, 21, 22, 23, 24, 25, 26, 27, 28, 29, 30, 31, 32, 33, 34, 35, 36, 37, 38, 39, 40, 41, 42, 43, 44, 45, 46, 47, 48, 49, 50, 51, 52, 53, 54, 55, 56, 57, 58, 59, 60, 61, 62, 63, 64, 65, 66, 67, 68, 69, 70, 71, 72, 73, 74, 75, 76, 77, 78, 79, 80, 81, 82, 83, 84, 85, 86, 87, 88, 89, 90, 91, 92, 93, 94, 95, 96, 97, 98, 99, 100, 101, 102, 103, 104, 105, 106, 107, 108, 109, 110, 111, 112, 113, 114, 115, 116, 117, 118, 119, 120, 121, 122, 123, 124, 125, 126, 127, 128, 129, 130, 131, 132, 133, 134, 135, 136, 137, 138, 139, 140, 141, 142, 143, 144, 145, 146, 147, 148, 149, 150, 151, 152, 153, 154, 155, 156, 157, 158, 159, 160, 161, 162, 163, 164, 165, 166, 167, 168, 169, 170, 171, 172, 173, 174, 175, 176, 177, 178, 179, 180, 181, 182, 183, 184, 185, 186, 187, 188, 189, 190, 191, 192, 193, 194, 195, 196, 197, 198, 199, 200, 201, 202, 203, 204, 205, 206, 207, 208, 209, 210, 211, 212, 213, 214, 215, 216, 217, 218, 219, 220, 221, 222, 223, 224, 225, 226, 227, 228, 229, 230, 231, 232, 233, 234, 235, 236, 237, 238, 239, 240, 241, 242, 243, 244, 245, 246, 247, 248, 249, 250, 251, 252, 253, 254, 255, 256, 257, 258, 259, 260, 261, 262, 263, 264, 265, 266, 267, 268, 269, 270, 271, 272, 273, 274, 275, 276, 277, 278, 279, 280, 281, 282, 283, 284, 285, 286, 287, 288, 289, 290, 291, 292, 293, 294, 295, 296, 297, 298, 299, 300, 301, 302, 303, 304, 305, 306, 307, 308, 309, 310, 311, 312, 313, 314, 315, 316, 317, 318, 319, 320, 321, 322, 323, 324],
      "AcquisitionTime": ["200038.650000", "200039.950000", "200041.250000", "200042.550000", "200043.850000", "200045.150000", "200046.450000", "200047.750000", "200049.050000", "200050.350000", "200051.650000", "200052.950000", "200054.250000", "200055.550000", "200056.850000", "200058.150000", "200059.450000", "200100.750000", "200102.050000", "200103.350000", "200104.650000", "200105.950000", "200107.250000", "200108.550000", "200109.850000", "200111.150000", "200112.450000", "200113.750000", "200115.050000", "200116.350000", "200117.650000", "200118.950000", "200120.250000", "200121.550000", "200122.850000", "200124.150000", "200125.450000", "200126.750000", "200128.050000", "200129.350000", "200130.650000", "200131.950000", "200133.250000", "200134.550000", "200135.850000", "200137.150000", "200138.450000", "200139.750000", "200141.050000", "200142.350000", "200143.650000", "200144.950000", "200146.250000", "200147.550000", "200148.850000", "200150.150000", "200151.450000", "200152.750000", "200154.050000", "200155.350000", "200156.650000", "200157.950000", "200159.250000", "200200.550000", "200201.850000", "200203.150000", "200204.450000", "200205.750000", "200207.050000", "200208.350000", "200209.650000", "200210.950000", "200212.250000", "200213.550000", "200214.850000", "200216.150000", "200217.450000", "200218.750000", "200220.050000", "200221.350000", "200222.650000", "200223.950000", "200225.250000", "200226.550000", "200227.850000", "200229.150000", "200230.450000", "200231.750000", "200233.050000", "200234.350000", "200235.650000", "200236.950000", "200238.250000", "200239.550000", "200240.850000", "200242.150000", "200243.450000", "200244.750000", "200246.050000", "200247.350000", "200248.650000", "200249.950000", "200251.250000", "200252.550000", "200253.850000", "200255.150000", "200256.450000", "200257.750000", "200259.050000", "200300.350000", "200301.650000", "200302.950000", "200304.250000", "200305.550000", "200306.850000", "200308.150000", "200309.450000", "200310.750000", "200312.050000", "200313.350000", "200314.650000", "200315.950000", "200317.250000", "200318.550000", "200319.850000", "200321.150000", "200322.450000", "200323.750000", "200325.050000", "200326.350000", "200327.650000", "200328.950000", "200330.250000", "200331.550000", "200332.850000", "200334.150000", "200335.450000", "200336.750000", "200338.050000", "200339.350000", "200340.650000", "200341.950000", "200343.250000", "200344.550000", "200345.850000", "200347.150000", "200348.450000", "200349.750000", "200351.050000", "200352.350000", "200353.650000", "200354.950000", "200356.250000", "200357.550000", "200358.850000", "200400.150000", "200401.450000", "200402.750000", "200404.050000", "200405.350000", "200406.650000", "200407.950000", "200409.250000", "200410.550000", "200411.850000", "200413.150000", "200414.450000", "200415.750000", "200417.050000", "200418.350000", "200419.650000", "200420.950000", "200422.250000", "200423.550000", "200424.850000", "200426.150000", "200427.450000", "200428.750000", "200430.050000", "200431.350000", "200432.650000", "200433.950000", "200435.250000", "200436.550000", "200437.850000", "200439.150000", "200440.450000", "200441.750000", "200443.050000", "200444.350000", "200445.650000", "200446.950000", "200448.250000", "200449.550000", "200450.850000", "200452.150000", "200453.450000", "200454.750000", "200456.050000", "200457.350000", "200458.650000", "200459.950000", "200501.250000", "200502.550000", "200503.850000", "200505.150000", "200506.450000", "200507.750000", "200509.050000", "200510.350000", "200511.650000", "200512.950000", "200514.250000", "200515.550000", "200516.850000", "200518.150000", "200519.450000", "200520.750000", "200522.050000", "200523.350000", "200524.650000", "200525.950000", "200527.250000", "200528.550000", "200529.850000", "200531.150000", "200532.450000", "200533.750000", "200535.050000", "200536.350000", "200537.650000", "200538.950000", "200540.250000", "200541.550000", "200542.850000", "200544.150000", "200545.450000", "200546.750000", "200548.050000", "200549.350000", "200550.650000", "200551.950000", "200553.250000", "200554.550000", "200555.850000", "200557.150000", "200558.450000", "200559.750000", "200601.050000", "200602.350000", "200603.650000", "200604.950000", "200606.250000", "200607.550000", "200608.850000", "200610.150000", "200611.450000", "200612.750000", "200614.050000", "200615.350000", "200616.650000", "200617.950000", "200619.250000", "200620.550000", "200621.850000", "200623.150000", "200624.450000", "200625.750000", "200627.050000", "200628.350000", "200629.650000", "200630.950000", "200632.250000", "200633.550000", "200634.850000", "200636.150000", "200637.450000", "200638.750000", "200640.050000", "200641.350000", "200642.650000", "200643.950000", "200645.250000", "200646.550000", "200647.850000", "200649.150000", "200650.450000", "200651.750000", "200653.050000", "200654.350000", "200655.650000", "200656.950000", "200658.250000", "200659.550000", "200700.850000", "200702.150000", "200703.450000", "200704.750000", "200706.050000", "200707.350000", "200708.650000", "200709.950000", "200711.250000", "200712.550000", "200713.850000", "200715.150000", "200716.450000", "200717.750000", "200719.050000", "200720.350000", "200721.650000", "200722.950000", "200724.250000", "200725.550000", "200726.850000", "200728.150000", "200729.450000", "200730.750000", "200732.050000", "200733.350000", "200734.650000", "200735.950000", "200737.250000", "200738.550000"],
      "ContentTime": ["200058.599000", "200103.573000", "200103.586000", "200103.589000", "200103.592000", "200103.594000", "200103.597000", "200103.600000", "200103.603000", "200103.606000", "200103.609000", "200108.587000", "200108.590000", "200108.593000", "200108.596000", "200108.599000", "200108.602000", "200108.605000", "200108.607000", "200108.621000", "200108.624000", "200113.574000", "200113.577000", "200113.580000", "200113.582000", "200113.585000", "200118.574000", "200118.577000", "200118.580000", "200118.582000", "200123.574000", "200123.577000", "200123.580000", "200128.574000", "200128.577000", "200128.580000", "200128.582000", "200133.574000", "200133.577000", "200133.580000", "200133.583000", "200138.573000", "200138.576000", "200138.579000", "200138.581000", "200143.574000", "200143.579000", "200143.581000", "200143.589000", "200148.574000", "200148.577000", "200148.580000", "200148.583000", "200153.574000", "200153.577000", "200153.580000", "200153.582000", "200158.574000", "200158.577000", "200158.580000", "200203.574000", "200203.577000", "200203.580000", "200203.582000", "200208.574000", "200208.577000", "200208.580000", "200208.583000", "200213.573000", "200213.576000", "200213.579000", "200213.582000", "200218.574000", "200218.577000", "200218.580000", "200218.582000", "200223.574000", "200223.577000", "200223.580000", "200223.583000", "200228.574000", "200228.577000", "200228.580000", "200233.574000", "200233.577000", "200233.580000", "200233.583000", "200238.574000", "200238.577000", "200238.580000", "200238.582000", "200243.574000", "200243.577000", "200243.580000", "200243.582000", "200248.573000", "200248.576000", "200248.579000", "200248.582000", "200253.574000", "200253.582000", "200253.585000", "200253.588000", "200258.574000", "200258.577000", "200258.580000", "200258.583000", "200303.574000", "200303.577000", "200303.580000", "200308.574000", "200308.577000", "200308.580000", "200308.583000", "200313.574000", "200313.577000", "200313.580000", "200313.582000", "200318.574000", "200318.577000", "200318.580000", "200318.582000", "200323.573000", "200323.576000", "200323.579000", "200323.582000", "200328.574000", "200328.577000", "200328.580000", "200328.583000", "200333.574000", "200333.577000", "200333.581000", "200338.574000", "200338.577000", "200338.580000", "200338.583000", "200343.574000", "200343.577000", "200343.580000", "200343.583000", "200348.574000", "200348.577000", "200348.580000", "200348.583000", "200353.574000", "200353.577000", "200353.580000", "200353.583000", "200358.573000", "200358.576000", "200358.579000", "200358.582000", "200403.575000", "200403.579000", "200403.581000", "200408.574000", "200408.577000", "200408.580000", "200408.583000", "200413.574000", "200413.577000", "200413.580000", "200413.583000", "200418.574000", "200418.577000", "200418.580000", "200418.583000", "200423.594000", "200423.597000", "200423.600000", "200423.602000", "200428.574000", "200428.577000", "200428.580000", "200428.583000", "200433.573000", "200433.576000", "200433.579000", "200433.581000", "200438.574000", "200438.577000", "200438.580000", "200443.574000", "200443.577000", "200443.580000", "200443.583000", "200448.574000", "200448.577000", "200448.580000", "200448.583000", "200453.574000", "200453.577000", "200453.580000", "200453.583000", "200458.574000", "200458.577000", "200458.580000", "200458.583000", "200503.574000", "200503.577000", "200503.580000", "200503.582000", "200508.573000", "200508.576000", "200508.579000", "200508.581000", "200513.574000", "200513.577000", "200513.588000", "200518.574000", "200518.577000", "200518.580000", "200518.583000", "200523.574000", "200523.577000", "200523.580000", "200523.583000", "200528.574000", "200528.577000", "200528.580000", "200528.583000", "200533.574000", "200533.577000", "200533.580000", "200533.583000", "200538.574000", "200538.577000", "200538.580000", "200538.583000", "200543.573000", "200543.576000", "200543.580000", "200548.574000", "200548.577000", "200548.580000", "200548.583000", "200553.574000", "200553.577000", "200553.580000", "200553.583000", "200558.574000", "200558.577000", "200558.580000", "200558.583000", "200603.574000", "200603.577000", "200603.580000", "200603.583000", "200608.574000", "200608.577000", "200608.580000", "200608.583000", "200613.574000", "200613.577000", "200613.580000", "200613.582000", "200618.573000", "200618.576000", "200618.579000", "200623.574000", "200623.577000", "200623.580000", "200623.583000", "200628.574000", "200628.577000", "200628.580000", "200628.582000", "200633.574000", "200633.577000", "200633.580000", "200633.583000", "200638.574000", "200638.577000", "200638.580000", "200638.583000", "200643.574000", "200643.577000", "200643.580000", "200643.583000", "200648.574000", "200648.578000", "200648.581000", "200653.593000", "200653.596000", "200653.599000", "200653.602000", "200658.574000", "200658.577000", "200658.580000", "200658.583000", "200703.574000", "200703.577000", "200703.580000", "200703.583000", "200708.574000", "200708.577000", "200708.580000", "200708.583000", "200713.574000", "200713.577000", "200713.580000", "200713.583000", "200718.574000", "200718.577000", "200718.580000", "200718.582000", "200723.574000", "200723.577000", "200723.580000", "200728.573000", "200728.576000", "200728.579000", "200728.582000", "200733.574000", "200733.577000", "200733.580000", "200733.583000", "200738.574000", "200738.577000", "200738.580000", "200738.583000", "200740.710000", "200740.714000"],
      "InstanceCreationTime": ["200058.599000", "200103.573000", "200103.586000", "200103.589000", "200103.592000", "200103.594000", "200103.597000", "200103.600000", "200103.603000", "200103.606000", "200103.609000", "200108.587000", "200108.590000", "200108.593000", "200108.596000", "200108.599000", "200108.602000", "200108.605000", "200108.607000", "200108.621000", "200108.624000", "200113.574000", "200113.577000", "200113.580000", "200113.582000", "200113.585000", "200118.574000", "200118.577000", "200118.580000", "200118.582000", "200123.574000", "200123.577000", "200123.580000", "200128.574000", "200128.577000", "200128.580000", "200128.582000", "200133.574000", "200133.577000", "200133.580000", "200133.583000", "200138.573000", "200138.576000", "200138.579000", "200138.581000", "200143.574000", "200143.579000", "200143.581000", "200143.589000", "200148.574000", "200148.577000", "200148.580000", "200148.583000", "200153.574000", "200153.577000", "200153.580000", "200153.582000", "200158.574000", "200158.577000", "200158.580000", "200203.574000", "200203.577000", "200203.580000", "200203.582000", "200208.574000", "200208.577000", "200208.580000", "200208.583000", "200213.573000", "200213.576000", "200213.579000", "200213.582000", "200218.574000", "200218.577000", "200218.580000", "200218.582000", "200223.574000", "200223.577000", "200223.580000", "200223.583000", "200228.574000", "200228.577000", "200228.580000", "200233.574000", "200233.577000", "200233.580000", "200233.583000", "200238.574000", "200238.577000", "200238.580000", "200238.582000", "200243.574000", "200243.577000", "200243.580000", "200243.582000", "200248.573000", "200248.576000", "200248.579000", "200248.582000", "200253.574000", "200253.582000", "200253.585000", "200253.588000", "200258.574000", "200258.577000", "200258.580000", "200258.583000", "200303.574000", "200303.577000", "200303.580000", "200308.574000", "200308.577000", "200308.580000", "200308.583000", "200313.574000", "200313.577000", "200313.580000", "200313.582000", "200318.574000", "200318.577000", "200318.580000", "200318.582000", "200323.573000", "200323.576000", "200323.579000", "200323.582000", "200328.574000", "200328.577000", "200328.580000", "200328.583000", "200333.574000", "200333.577000", "200333.581000", "200338.574000", "200338.577000", "200338.580000", "200338.583000", "200343.574000", "200343.577000", "200343.580000", "200343.583000", "200348.574000", "200348.577000", "200348.580000", "200348.583000", "200353.574000", "200353.577000", "200353.580000", "200353.583000", "200358.573000", "200358.576000", "200358.579000", "200358.582000", "200403.575000", "200403.579000", "200403.581000", "200408.574000", "200408.577000", "200408.580000", "200408.583000", "200413.574000", "200413.577000", "200413.580000", "200413.583000", "200418.574000", "200418.577000", "200418.580000", "200418.583000", "200423.594000", "200423.597000", "200423.600000", "200423.602000", "200428.574000", "200428.577000", "200428.580000", "200428.583000", "200433.573000", "200433.576000", "200433.579000", "200433.581000", "200438.574000", "200438.577000", "200438.580000", "200443.574000", "200443.577000", "200443.580000", "200443.583000", "200448.574000", "200448.577000", "200448.580000", "200448.583000", "200453.574000", "200453.577000", "200453.580000", "200453.583000", "200458.574000", "200458.577000", "200458.580000", "200458.583000", "200503.574000", "200503.577000", "200503.580000", "200503.582000", "200508.573000", "200508.576000", "200508.579000", "200508.581000", "200513.574000", "200513.577000", "200513.588000", "200518.574000", "200518.577000", "200518.580000", "200518.583000", "200523.574000", "200523.577000", "200523.580000", "200523.583000", "200528.574000", "200528.577000", "200528.580000", "200528.583000", "200533.574000", "200533.577000", "200533.580000", "200533.583000", "200538.574000", "200538.577000", "200538.580000", "200538.583000", "200543.573000", "200543.576000", "200543.580000", "200548.574000", "200548.577000", "200548.580000", "200548.583000", "200553.574000", "200553.577000", "200553.580000", "200553.583000", "200558.574000", "200558.577000", "200558.580000", "200558.583000", "200603.574000", "200603.577000", "200603.580000", "200603.583000", "200608.574000", "200608.577000", "200608.580000", "200608.583000", "200613.574000", "200613.577000", "200613.580000", "200613.582000", "200618.573000", "200618.576000", "200618.579000", "200623.574000", "200623.577000", "200623.580000", "200623.583000", "200628.574000", "200628.577000", "200628.580000", "200628.582000", "200633.574000", "200633.577000", "200633.580000", "200633.583000", "200638.574000", "200638.577000", "200638.580000", "200638.583000", "200643.574000", "200643.577000", "200643.580000", "200643.583000", "200648.574000", "200648.578000", "200648.581000", "200653.593000", "200653.596000", "200653.599000", "200653.602000", "200658.574000", "200658.577000", "200658.580000", "200658.583000", "200703.574000", "200703.577000", "200703.580000", "200703.583000", "200708.574000", "200708.577000", "200708.580000", "200708.583000", "200713.574000", "200713.577000", "200713.580000", "200713.583000", "200718.574000", "200718.577000", "200718.580000", "200718.582000", "200723.574000", "200723.577000", "200723.580000", "200728.573000", "200728.576000", "200728.579000", "200728.582000", "200733.574000", "200733.577000", "200733.580000", "200733.583000", "200738.574000", "200738.577000", "200738.580000", "200738.583000", "200740.710000", "200740.714000"],
      "InstanceNumber": [1, 2, 3, 4, 5, 6, 7, 8, 9, 10, 11, 12, 13, 14, 15, 16, 17, 18, 19, 20, 21, 22, 23, 24, 25, 26, 27, 28, 29, 30, 31, 32, 33, 34, 35, 36, 37, 38, 39, 40, 41, 42, 43, 44, 45, 46, 47, 48, 49, 50, 51, 52, 53, 54, 55, 56, 57, 58, 59, 60, 61, 62, 63, 64, 65, 66, 67, 68, 69, 70, 71, 72, 73, 74, 75, 76, 77, 78, 79, 80, 81, 82, 83, 84, 85, 86, 87, 88, 89, 90, 91, 92, 93, 94, 95, 96, 97, 98, 99, 100, 101, 102, 103, 104, 105, 106, 107, 108, 109, 110, 111, 112, 113, 114, 115, 116, 117, 118, 119, 120, 121, 122, 123, 124, 125, 126, 127, 128, 129, 130, 131, 132, 133, 134, 135, 136, 137, 138, 139, 140, 141, 142, 143, 144, 145, 146, 147, 148, 149, 150, 151, 152, 153, 154, 155, 156, 157, 158, 159, 160, 161, 162, 163, 164, 165, 166, 167, 168, 169, 170, 171, 172, 173, 174, 175, 176, 177, 178, 179, 180, 181, 182, 183, 184, 185, 186, 187, 188, 189, 190, 191, 192, 193, 194, 195, 196, 197, 198, 199, 200, 201, 202, 203, 204, 205, 206, 207, 208, 209, 210, 211, 212, 213, 214, 215, 216, 217, 218, 219, 220, 221, 222, 223, 224, 225, 226, 227, 228, 229, 230, 231, 232, 233, 234, 235, 236, 237, 238, 239, 240, 241, 242, 243, 244, 245, 246, 247, 248, 249, 250, 251, 252, 253, 254, 255, 256, 257, 258, 259, 260, 261, 262, 263, 264, 265, 266, 267, 268, 269, 270, 271, 272, 273, 274, 275, 276, 277, 278, 279, 280, 281, 282, 283, 284, 285, 286, 287, 288, 289, 290, 291, 292, 293, 294, 295, 296, 297, 298, 299, 300, 301, 302, 303, 304, 305, 306, 307, 308, 309, 310, 311, 312, 313, 314, 315, 316, 317, 318, 319, 320, 321, 322, 323, 324],
      "LargestImagePixelValue": [27009, 26149, 25726, 25513, 25396, 25095, 25228, 24988, 25136, 25111, 24910, 25351, 25289, 25389, 25048, 25132, 25177, 25061, 24990, 25131, 24946, 24912, 24854, 25215, 25088, 24985, 24803, 24665, 24838, 24844, 24412, 26056, 23798, 23718, 23233, 24958, 26129, 25667, 23769, 24484, 23891, 24495, 24267, 24660, 24064, 24210, 25569, 25524, 25153, 25203, 25316, 24098, 24888, 25043, 25213, 25199, 25334, 25448, 25365, 25417, 25500, 25664, 25453, 25336, 25472, 25534, 25339, 25505, 25727, 25609, 25610, 25518, 25634, 25595, 24675, 23342, 25422, 23682, 23083, 24118, 24969, 24202, 22184, 22325, 22226, 22275, 22133, 22436, 25277, 23156, 22463, 23727, 22828, 24955, 23731, 24172, 22812, 22682, 22317, 23302, 22273, 22228, 21473, 21579, 21844, 21909, 21924, 21916, 22140, 22167, 22348, 22274, 22164, 22269, 22087, 22118, 22309, 22611, 22078, 22367, 22321, 22540, 22244, 23861, 23627, 23889, 22578, 22662, 22453, 23133, 28476, 25514, 26163, 25402, 24512, 24528, 23964, 21701, 23364, 22683, 22927, 23277, 22161, 26191, 27333, 24756, 24835, 25575, 23679, 24649, 23948, 24269, 24129, 24014, 24332, 24440, 24205, 24552, 24347, 24522, 24678, 24410, 24351, 24754, 25060, 24805, 24809, 24807, 24690, 24582, 24467, 24442, 23745, 24705, 24493, 23688, 22203, 25666, 23890, 24220, 23864, 24470, 22414, 22716, 22477, 22273, 22929, 23470, 22583, 25460, 25101, 24855, 24420, 24773, 24431, 24513, 24290, 24409, 24366, 24138, 24373, 24183, 24315, 24093, 24336, 24380, 24327, 24257, 24369, 24476, 24269, 24360, 24187, 24402, 24281, 24212, 24444, 23618, 23850, 23611, 22906, 22644, 23017, 23742, 26132, 27040, 27073, 23629, 23628, 23314, 22373, 23253, 22307, 22021, 20967, 22573, 24915, 25046, 23422, 24990, 23386, 22534, 23889, 24105, 21480, 21551, 21646, 21995, 22112, 22207, 22292, 22389, 22476, 22548, 22335, 21712, 21940, 22097, 21900, 22147, 22189, 22134, 22202, 22113, 22140, 22181, 22274, 23466, 22311, 22290, 21529, 21632, 23817, 25436, 26867, 26081, 25172, 24555, 24578, 24557, 23282, 23083, 22210, 22370, 22442, 22218, 22581, 24866, 27855, 26310, 26685, 25241, 24113, 23805, 23707, 23741, 24128, 23794, 23864, 24200, 24089, 24149, 24145, 24249, 24227, 24221, 24250, 24408, 24484, 24473, 24560, 24633, 24793, 24833, 24762, 24869, 24712, 24688, 24885, 24827, 24875, 24766, 24875, 24821],
      "WindowCenter": [7013.0, 6973.0, 6950.0, 6947.0, 6937.0, 6928.0, 6936.0, 6924.0, 6915.0, 6914.0, 6914.0, 6924.0, 6923.0, 6912.0, 6903.0, 6900.0, 6910.0, 6913.0, 6916.0, 6925.0, 6926.0, 6927.0, 6925.0, 6933.0, 6924.0, 6925.0, 6925.0, 6918.0, 6917.0, 6914.0, 6726.0, 6870.0, 6790.0, 6776.0, 6800.0, 6841.0, 6918.0, 6890.0, 6807.0, 6780.0, 6714.0, 6795.0, 6808.0, 6815.0, 6752.0, 6717.0, 6790.0, 6810.0, 6820.0, 6835.0, 6776.0, 6786.0, 6800.0, 6800.0, 6810.0, 6810.0, 6811.0, 6820.0, 6821.0, 6820.0, 6829.0, 6829.0, 6820.0, 6819.0, 6830.0, 6853.0, 6856.0, 6865.0, 6853.0, 6843.0, 6840.0, 6840.0, 6840.0, 6852.0, 6706.0, 6634.0, 6887.0, 6880.0, 6866.0, 6817.0, 6737.0, 6523.0, 6509.0, 6526.0, 6420.0, 6591.0, 6424.0, 6661.0, 6779.0, 6655.0, 6784.0, 6810.0, 6675.0, 6633.0, 6515.0, 6677.0, 6644.0, 6599.0, 6436.0, 6655.0, 6774.0, 6738.0, 6730.0, 6721.0, 6729.0, 6729.0, 6738.0, 6729.0, 6726.0, 6725.0, 6733.0, 6734.0, 6724.0, 6735.0, 6725.0, 6724.0, 6721.0, 6719.0, 6711.0, 6711.0, 6719.0, 6721.0, 6713.0, 6650.0, 6730.0, 6805.0, 6776.0, 6799.0, 6767.0, 6545.0, 6765.0, 6903.0, 6871.0, 6861.0, 6852.0, 6864.0, 6724.0, 6627.0, 6812.0, 6827.0, 6823.0, 6834.0, 6704.0, 6733.0, 6901.0, 6865.0, 6885.0, 6899.0, 6655.0, 6859.0, 6814.0, 6821.0, 6823.0, 6823.0, 6832.0, 6831.0, 6822.0, 6821.0, 6819.0, 6818.0, 6826.0, 6829.0, 6829.0, 6839.0, 6839.0, 6849.0, 6849.0, 6850.0, 6840.0, 6841.0, 6842.0, 6843.0, 6790.0, 6751.0, 6809.0, 6805.0, 6687.0, 6855.0, 6725.0, 6908.0, 6863.0, 6797.0, 6672.0, 6750.0, 6751.0, 6764.0, 6784.0, 6756.0, 6740.0, 6811.0, 6825.0, 6826.0, 6818.0, 6719.0, 6782.0, 6792.0, 6781.0, 6781.0, 6782.0, 6786.0, 6804.0, 6797.0, 6806.0, 6796.0, 6795.0, 6795.0, 6795.0, 6794.0, 6797.0, 6815.0, 6807.0, 6804.0, 6795.0, 6783.0, 6783.0, 6794.0, 6816.0, 6720.0, 6687.0, 6807.0, 6783.0, 6784.0, 6795.0, 6501.0, 6517.0, 6694.0, 6788.0, 6657.0, 6656.0, 6433.0, 6523.0, 6855.0, 6795.0, 6761.0, 6740.0, 6575.0, 6440.0, 6750.0, 6643.0, 6673.0, 6678.0, 6450.0, 6649.0, 6724.0, 6661.0, 6662.0, 6660.0, 6658.0, 6658.0, 6659.0, 6666.0, 6668.0, 6677.0, 6680.0, 6692.0, 6686.0, 6695.0, 6687.0, 6688.0, 6695.0, 6696.0, 6695.0, 6694.0, 6675.0, 6674.0, 6672.0, 6576.0, 6722.0, 6745.0, 6757.0, 6742.0, 6645.0, 6587.0, 6737.0, 6882.0, 6846.0, 6826.0, 6808.0, 6806.0, 6624.0, 6565.0, 6779.0, 6738.0, 6757.0, 6767.0, 6746.0, 6562.0, 6621.0, 6909.0, 6848.0, 6855.0, 6625.0, 6884.0, 6846.0, 6845.0, 6846.0, 6843.0, 6836.0, 6844.0, 6843.0, 6833.0, 6831.0, 6830.0, 6840.0, 6842.0, 6853.0, 6854.0, 6855.0, 6863.0, 6864.0, 6862.0, 6863.0, 6852.0, 6859.0, 6851.0, 6851.0, 6852.0, 6862.0, 6861.0, 6860.0, 6849.0, 6850.0, 6858.0, 6859.0],
