{
  "AcquisitionMatrixPE": 104,
  "AcquisitionNumber": 1,
  "AcquisitionTime": "19:22:3.332500",
  "BandwidthPerPixelPhaseEncode": 17.17,
  "BaseResolution": 104,
  "BodyPartExamined": "BRAIN",
  "ConsistencyInfo": "N4_VE11C_LATEST_20160120",
  "ConversionSoftware": "dcm2niix",
  "ConversionSoftwareVersion": "v1.0.20190410  GCC6.3.0",
  "DerivedVendorReportedEchoSpacing": 0.000560011,
  "DeviceSerialNumber": "166018",
  "DwellTime": 2.1e-06,
  "EchoTime": 0.035,
  "EchoTrainLength": 104,
  "EffectiveEchoSpacing": 0.000560011,
  "FlipAngle": 62,
  "ImageComments": "Unaliased_MB4_PE3_LB",
  "ImageOrientationPatientDICOM": [1, 0, 0, 0, 1, 2.8312e-11],
  "ImageType": [
    "ORIGINAL",
    "PRIMARY",
    "M",
    "MB",
    "ND",
    "MOSAIC"
],
  "ImagingFrequency": 123.191,
  "InPlanePhaseEncodingDirectionDICOM": "COL",
  "InstitutionAddress": "Washington_Place_6_NYC_NYC_US_10003",
  "InstitutionName": "NYU_-_CBI",
  "InstitutionalDepartmentName": "Department",
  "MRAcquisitionType": "2D",
  "MagneticFieldStrength": 3,
  "Manufacturer": "Siemens",
  "ManufacturersModelName": "Prisma",
  "Modality": "MR",
  "MultibandAccelerationFactor": 4,
  "PartialFourier": 1,
  "PatientPosition": "HFS",
  "PercentPhaseFOV": 100,
  "PhaseEncodingDirection": "j-",
  "PhaseEncodingSteps": 104,
  "PhaseResolution": 1,
  "PixelBandwidth": 2290,
  "ProcedureStepDescription": "",
  "ProtocolName": "epi_MB4_2mm_motion",
  "PulseSequenceDetails": "%CustomerSeq%_cmrr_mbep2d_bold",
  "ReceiveCoilActiveElements": "HEA;HEP",
  "ReceiveCoilName": "Head_32",
  "ReconMatrixPE": 104,
  "RepetitionTime": 1.3,
  "SAR": 0.0642206,
  "ScanOptions": "FS",
  "ScanningSequence": "EP",
  "SequenceName": "epfid2d1_104",
  "SequenceVariant": "SK_SS",
  "SeriesDescription": "epi_MB4_2mm_motion",
  "SeriesNumber": 5,
  "ShimSetting": [265, -12607, -8466, 524, 14, 82, -79, 16],
  "SliceThickness": 2,
  "SliceTiming": [0, 0.56, 1.12, 0.4, 0.96, 0.24, 0.8, 0.08, 0.64, 1.2, 0.48, 1.04, 0.32, 0.88, 0.16, 0.72, 0, 0.56, 1.12, 0.4, 0.96, 0.24, 0.8, 0.08, 0.64, 1.2, 0.48, 1.04, 0.32, 0.88, 0.16, 0.72, 0, 0.56, 1.12, 0.4, 0.96, 0.24, 0.8, 0.08, 0.64, 1.2, 0.48, 1.04, 0.32, 0.88, 0.16, 0.72, 0, 0.56, 1.12, 0.4, 0.96, 0.24, 0.8, 0.08, 0.64, 1.2, 0.48, 1.04, 0.32, 0.88, 0.16, 0.72],
  "SoftwareVersions": "syngo_MR_E11",
  "SpacingBetweenSlices": 2,
  "StationName": "AWP166018",
  "TaskName": "TASK",
  "TotalReadoutTime": 0.0576811,
  "TxRefAmp": 219.386,
  "WipMemBlock": "c3c97471-b681-4f2d-96dc-1a0ffc943115||Sequence: R016 ve11c/master r/8780670; Nov 27 2017 15:05:12 by eja",
  "dcmmeta_affine": [
    [-2.0, 0.0, 0.0, 104.0],
    [0.0, 2.0, 5.662400062722561e-11, -91.22732543945312],
    [0.0, -5.662400062722561e-11, 2.0, -28.417774200439453],
    [0.0, 0.0, 0.0, 1.0]
],
  "dcmmeta_reorient_transform": [
    [0.0, -1.0, 0.0, 103.0],
    [1.0, 0.0, 0.0, 0.0],
    [0.0, 0.0, 1.0, 0.0],
    [0.0, 0.0, 0.0, 1.0]
],
  "dcmmeta_shape": [104, 104, 64, 324],
  "dcmmeta_slice_dim": 2,
  "dcmmeta_version": 0.6,
  "global": {
    "const": {
      "AccessionNumber": "jyug0rn4",
      "AcquisitionMatrix": [104, 0, 0, 104],
      "AngioFlag": "N",
      "BitsAllocated": 16,
      "BitsStored": 16,
      "BodyPartExamined": "BRAIN",
      "Columns": 832,
      "EchoNumbers": 1,
      "EchoTime": 35.0,
      "EchoTrainLength": 104,
      "FlipAngle": 62.0,
      "HighBit": 15,
      "ImageOrientationPatient": [1.0, 0.0, 0.0, 0.0, 1.0, 2.8312e-11],
      "ImagePositionPatient": [-832.0, -842.7726764679, -28.417774223995],
      "ImageType": [
        "ORIGINAL",
        "PRIMARY",
        "M",
        "MB",
        "ND",
        "MOSAIC"
],
      "ImagedNucleus": "1H",
      "ImagingFrequency": 123.190979,
      "InPlanePhaseEncodingDirection": "COL",
      "MRAcquisitionType": "2D",
      "MagneticFieldStrength": 3.0,
      "Manufacturer": "SIEMENS",
      "ManufacturerModelName": "Prisma",
      "Modality": "MR",
      "NumberOfAverages": 1.0,
      "NumberOfPhaseEncodingSteps": 104,
      "PercentPhaseFieldOfView": 100.0,
      "PercentSampling": 100.0,
      "PerformedProcedureStepStartTime": "185342.550000",
      "PhotometricInterpretation": "MONOCHROME2",
      "PixelBandwidth": 2290.0,
      "PixelRepresentation": 0,
      "PixelSpacing": [2.0, 2.0],
      "ProtocolName": "epi_MB4_2mm_motion",
      "RepetitionTime": 1300.0,
      "Rows": 832,
      "SAR": 0.06422057009791,
      "SamplesPerPixel": 1,
      "ScanOptions": "FS",
      "ScanningSequence": "EP",
      "SequenceName": "epfid2d1_104",
      "SequenceVariant": [
        "SK",
        "SS"
],
      "SeriesDescription": "epi_MB4_2mm_motion",
      "SeriesNumber": 5,
      "SeriesTime": "192245.907000",
      "SliceLocation": -28.417774200134,
      "SliceThickness": 2.0,
      "SmallestImagePixelValue": 0,
      "SoftwareVersions": "syngo MR E11",
      "SpacingBetweenSlices": 2.0000000605508,
      "SpecificCharacterSet": "ISO_IR 100",
      "StudyID": "1",
      "StudyTime": "185342.433000",
      "TransmitCoilName": "Body",
      "VariableFlipAngleFlag": "N",
      "WindowCenterWidthExplanation": "Algo1",
      "dBdt": 0.0},
    "slices": {}
  },
  "time": {
    "samples": {
      "AcquisitionNumber": [1, 2, 3, 4, 5, 6, 7, 8, 9, 10, 11, 12, 13, 14, 15, 16, 17, 18, 19, 20, 21, 22, 23, 24, 25, 26, 27, 28, 29, 30, 31, 32, 33, 34, 35, 36, 37, 38, 39, 40, 41, 42, 43, 44, 45, 46, 47, 48, 49, 50, 51, 52, 53, 54, 55, 56, 57, 58, 59, 60, 61, 62, 63, 64, 65, 66, 67, 68, 69, 70, 71, 72, 73, 74, 75, 76, 77, 78, 79, 80, 81, 82, 83, 84, 85, 86, 87, 88, 89, 90, 91, 92, 93, 94, 95, 96, 97, 98, 99, 100, 101, 102, 103, 104, 105, 106, 107, 108, 109, 110, 111, 112, 113, 114, 115, 116, 117, 118, 119, 120, 121, 122, 123, 124, 125, 126, 127, 128, 129, 130, 131, 132, 133, 134, 135, 136, 137, 138, 139, 140, 141, 142, 143, 144, 145, 146, 147, 148, 149, 150, 151, 152, 153, 154, 155, 156, 157, 158, 159, 160, 161, 162, 163, 164, 165, 166, 167, 168, 169, 170, 171, 172, 173, 174, 175, 176, 177, 178, 179, 180, 181, 182, 183, 184, 185, 186, 187, 188, 189, 190, 191, 192, 193, 194, 195, 196, 197, 198, 199, 200, 201, 202, 203, 204, 205, 206, 207, 208, 209, 210, 211, 212, 213, 214, 215, 216, 217, 218, 219, 220, 221, 222, 223, 224, 225, 226, 227, 228, 229, 230, 231, 232, 233, 234, 235, 236, 237, 238, 239, 240, 241, 242, 243, 244, 245, 246, 247, 248, 249, 250, 251, 252, 253, 254, 255, 256, 257, 258, 259, 260, 261, 262, 263, 264, 265, 266, 267, 268, 269, 270, 271, 272, 273, 274, 275, 276, 277, 278, 279, 280, 281, 282, 283, 284, 285, 286, 287, 288, 289, 290, 291, 292, 293, 294, 295, 296, 297, 298, 299, 300, 301, 302, 303, 304, 305, 306, 307, 308, 309, 310, 311, 312, 313, 314, 315, 316, 317, 318, 319, 320, 321, 322, 323, 324],
      "AcquisitionTime": ["192203.332500", "192204.632500", "192205.932500", "192207.232500", "192208.532500", "192209.832500", "192211.132500", "192212.432500", "192213.732500", "192215.032500", "192216.332500", "192217.632500", "192218.932500", "192220.232500", "192221.532500", "192222.832500", "192224.132500", "192225.432500", "192226.732500", "192228.032500", "192229.332500", "192230.632500", "192231.932500", "192233.232500", "192234.532500", "192235.832500", "192237.132500", "192238.432500", "192239.732500", "192241.032500", "192242.332500", "192243.632500", "192244.932500", "192246.232500", "192247.532500", "192248.832500", "192250.132500", "192251.432500", "192252.732500", "192254.032500", "192255.332500", "192256.632500", "192257.932500", "192259.232500", "192300.532500", "192301.832500", "192303.132500", "192304.432500", "192305.732500", "192307.032500", "192308.332500", "192309.632500", "192310.932500", "192312.232500", "192313.532500", "192314.832500", "192316.132500", "192317.432500", "192318.732500", "192320.032500", "192321.332500", "192322.632500", "192323.932500", "192325.232500", "192326.532500", "192327.832500", "192329.132500", "192330.432500", "192331.732500", "192333.032500", "192334.332500", "192335.632500", "192336.932500", "192338.232500", "192339.532500", "192340.832500", "192342.132500", "192343.432500", "192344.732500", "192346.032500", "192347.332500", "192348.632500", "192349.932500", "192351.232500", "192352.532500", "192353.832500", "192355.132500", "192356.432500", "192357.732500", "192359.032500", "192400.332500", "192401.632500", "192402.932500", "192404.232500", "192405.532500", "192406.832500", "192408.132500", "192409.432500", "192410.732500", "192412.032500", "192413.332500", "192414.632500", "192415.932500", "192417.232500", "192418.532500", "192419.832500", "192421.132500", "192422.432500", "192423.732500", "192425.032500", "192426.332500", "192427.632500", "192428.932500", "192430.232500", "192431.532500", "192432.832500", "192434.132500", "192435.432500", "192436.732500", "192438.032500", "192439.332500", "192440.632500", "192441.932500", "192443.232500", "192444.532500", "192445.832500", "192447.132500", "192448.432500", "192449.732500", "192451.032500", "192452.332500", "192453.632500", "192454.932500", "192456.232500", "192457.532500", "192458.832500", "192500.132500", "192501.432500", "192502.732500", "192504.032500", "192505.332500", "192506.632500", "192507.932500", "192509.232500", "192510.532500", "192511.832500", "192513.132500", "192514.432500", "192515.732500", "192517.032500", "192518.332500", "192519.632500", "192520.932500", "192522.232500", "192523.532500", "192524.832500", "192526.132500", "192527.432500", "192528.732500", "192530.032500", "192531.332500", "192532.632500", "192533.932500", "192535.232500", "192536.532500", "192537.832500", "192539.132500", "192540.432500", "192541.732500", "192543.032500", "192544.332500", "192545.632500", "192546.932500", "192548.232500", "192549.532500", "192550.832500", "192552.132500", "192553.432500", "192554.732500", "192556.032500", "192557.332500", "192558.632500", "192559.932500", "192601.232500", "192602.532500", "192603.832500", "192605.132500", "192606.432500", "192607.732500", "192609.032500", "192610.332500", "192611.632500", "192612.932500", "192614.232500", "192615.532500", "192616.832500", "192618.132500", "192619.432500", "192620.732500", "192622.032500", "192623.332500", "192624.632500", "192625.932500", "192627.232500", "192628.532500", "192629.832500", "192631.132500", "192632.432500", "192633.732500", "192635.032500", "192636.332500", "192637.632500", "192638.932500", "192640.232500", "192641.532500", "192642.832500", "192644.132500", "192645.432500", "192646.732500", "192648.032500", "192649.332500", "192650.632500", "192651.932500", "192653.232500", "192654.532500", "192655.832500", "192657.132500", "192658.432500", "192659.732500", "192701.032500", "192702.332500", "192703.632500", "192704.932500", "192706.232500", "192707.532500", "192708.832500", "192710.132500", "192711.432500", "192712.732500", "192714.032500", "192715.332500", "192716.632500", "192717.932500", "192719.232500", "192720.532500", "192721.832500", "192723.132500", "192724.432500", "192725.732500", "192727.032500", "192728.332500", "192729.632500", "192730.932500", "192732.232500", "192733.532500", "192734.832500", "192736.132500", "192737.432500", "192738.732500", "192740.032500", "192741.332500", "192742.632500", "192743.932500", "192745.232500", "192746.532500", "192747.832500", "192749.132500", "192750.432500", "192751.732500", "192753.032500", "192754.332500", "192755.632500", "192756.932500", "192758.232500", "192759.532500", "192800.832500", "192802.132500", "192803.432500", "192804.732500", "192806.032500", "192807.332500", "192808.632500", "192809.932500", "192811.232500", "192812.532500", "192813.832500", "192815.132500", "192816.432500", "192817.732500", "192819.032500", "192820.332500", "192821.632500", "192822.932500", "192824.232500", "192825.532500", "192826.832500", "192828.132500", "192829.432500", "192830.732500", "192832.032500", "192833.332500", "192834.632500", "192835.932500", "192837.232500", "192838.532500", "192839.832500", "192841.132500", "192842.432500", "192843.732500", "192845.032500", "192846.332500", "192847.632500", "192848.932500", "192850.232500", "192851.532500", "192852.832500", "192854.132500", "192855.432500", "192856.732500", "192858.032500", "192859.332500", "192900.632500", "192901.932500", "192903.232500"],
      "ContentTime": ["192245.910000", "192245.913000", "192245.916000", "192245.919000", "192245.932000", "192245.934000", "192245.937000", "192245.940000", "192245.943000", "192245.946000", "192245.949000", "192245.961000", "192245.964000", "192245.967000", "192245.970000", "192245.973000", "192245.975000", "192245.978000", "192245.981000", "192245.984000", "192245.987000", "192245.990000", "192245.993000", "192245.996000", "192246.000000", "192246.003000", "192246.006000", "192246.009000", "192246.012000", "192246.015000", "192246.018000", "192246.021000", "192325.863000", "192325.866000", "192325.869000", "192325.872000", "192325.875000", "192325.878000", "192325.881000", "192325.884000", "192325.887000", "192325.890000", "192325.893000", "192325.902000", "192325.905000", "192325.908000", "192325.910000", "192325.913000", "192325.917000", "192325.920000", "192325.922000", "192325.925000", "192325.928000", "192325.931000", "192325.935000", "192325.938000", "192325.941000", "192325.944000", "192325.947000", "192325.950000", "192325.953000", "192325.956000", "192405.863000", "192405.866000", "192405.869000", "192405.872000", "192405.875000", "192405.878000", "192405.881000", "192405.884000", "192405.887000", "192405.890000", "192405.893000", "192405.896000", "192405.899000", "192405.902000", "192405.905000", "192405.907000", "192405.910000", "192405.913000", "192405.916000", "192405.919000", "192405.922000", "192405.925000", "192405.928000", "192405.931000", "192405.934000", "192405.937000", "192405.940000", "192405.943000", "192405.946000", "192405.949000", "192405.952000", "192445.862000", "192445.865000", "192445.868000", "192445.871000", "192445.874000", "192445.877000", "192445.880000", "192445.883000", "192445.886000", "192445.889000", "192445.901000", "192445.904000", "192445.907000", "192445.910000", "192445.913000", "192445.916000", "192445.919000", "192445.922000", "192445.925000", "192445.928000", "192445.931000", "192445.934000", "192445.937000", "192445.940000", "192445.943000", "192445.946000", "192445.949000", "192445.952000", "192445.955000", "192445.958000", "192445.961000", "192525.863000", "192525.866000", "192525.869000", "192525.872000", "192525.875000", "192525.878000", "192525.881000", "192525.884000", "192525.887000", "192525.890000", "192525.893000", "192525.896000", "192525.899000", "192525.902000", "192525.905000", "192525.907000", "192525.910000", "192525.913000", "192525.916000", "192525.919000", "192525.922000", "192525.925000", "192525.928000", "192525.931000", "192525.934000", "192525.937000", "192525.940000", "192525.943000", "192525.946000", "192525.949000", "192525.952000", "192605.863000", "192605.866000", "192605.869000", "192605.872000", "192605.875000", "192605.878000", "192605.881000", "192605.884000", "192605.887000", "192605.891000", "192605.894000", "192605.897000", "192605.900000", "192605.903000", "192605.906000", "192605.909000", "192605.912000", "192605.915000", "192605.918000", "192605.921000", "192605.923000", "192605.926000", "192605.929000", "192605.932000", "192605.935000", "192605.938000", "192605.941000", "192605.944000", "192605.947000", "192605.950000", "192645.862000", "192645.865000", "192645.868000", "192645.871000", "192645.874000", "192645.877000", "192645.880000", "192645.883000", "192645.886000", "192645.889000", "192645.892000", "192645.895000", "192645.898000", "192645.911000", "192645.914000", "192645.917000", "192645.920000", "192645.923000", "192645.926000", "192645.929000", "192645.932000", "192645.935000", "192645.938000", "192645.941000", "192645.944000", "192645.947000", "192645.950000", "192645.953000", "192645.956000", "192645.959000", "192645.962000", "192725.863000", "192725.866000", "192725.869000", "192725.872000", "192725.875000", "192725.878000", "192725.881000", "192725.884000", "192725.887000", "192725.890000", "192725.893000", "192725.896000", "192725.899000", "192725.902000", "192725.905000", "192725.908000", "192725.911000", "192725.914000", "192725.917000", "192725.920000", "192725.923000", "192725.926000", "192725.929000", "192725.932000", "192725.935000", "192725.938000", "192725.941000", "192725.944000", "192725.947000", "192725.950000", "192725.953000", "192805.863000", "192805.866000", "192805.869000", "192805.872000", "192805.875000", "192805.878000", "192805.881000", "192805.884000", "192805.887000", "192805.890000", "192805.893000", "192805.896000", "192805.899000", "192805.902000", "192805.905000", "192805.908000", "192805.911000", "192805.914000", "192805.917000", "192805.920000", "192805.923000", "192805.926000", "192805.929000", "192805.932000", "192805.935000", "192805.938000", "192805.941000", "192805.944000", "192805.947000", "192805.950000", "192805.953000", "192845.863000", "192845.866000", "192845.869000", "192845.872000", "192845.875000", "192845.878000", "192845.881000", "192845.884000", "192845.887000", "192845.890000", "192845.893000", "192845.896000", "192845.899000", "192845.902000", "192845.905000", "192845.908000", "192845.910000", "192845.913000", "192845.916000", "192845.919000", "192845.922000", "192845.925000", "192845.928000", "192845.931000", "192845.934000", "192845.937000", "192845.940000", "192845.943000", "192845.946000", "192845.949000", "192845.952000", "192905.364000", "192905.368000", "192905.371000", "192905.374000", "192905.377000", "192905.380000", "192905.383000", "192905.386000", "192905.389000", "192905.392000", "192905.395000", "192905.398000", "192905.400000", "192905.403000", "192905.406000"],
      "InstanceCreationTime": ["192245.910000", "192245.913000", "192245.916000", "192245.919000", "192245.932000", "192245.934000", "192245.937000", "192245.940000", "192245.943000", "192245.946000", "192245.949000", "192245.961000", "192245.964000", "192245.967000", "192245.970000", "192245.973000", "192245.975000", "192245.978000", "192245.981000", "192245.984000", "192245.987000", "192245.990000", "192245.993000", "192245.996000", "192246.000000", "192246.003000", "192246.006000", "192246.009000", "192246.012000", "192246.015000", "192246.018000", "192246.021000", "192325.863000", "192325.866000", "192325.869000", "192325.872000", "192325.875000", "192325.878000", "192325.881000", "192325.884000", "192325.887000", "192325.890000", "192325.893000", "192325.902000", "192325.905000", "192325.908000", "192325.910000", "192325.913000", "192325.917000", "192325.920000", "192325.922000", "192325.925000", "192325.928000", "192325.931000", "192325.935000", "192325.938000", "192325.941000", "192325.944000", "192325.947000", "192325.950000", "192325.953000", "192325.956000", "192405.863000", "192405.866000", "192405.869000", "192405.872000", "192405.875000", "192405.878000", "192405.881000", "192405.884000", "192405.887000", "192405.890000", "192405.893000", "192405.896000", "192405.899000", "192405.902000", "192405.905000", "192405.907000", "192405.910000", "192405.913000", "192405.916000", "192405.919000", "192405.922000", "192405.925000", "192405.928000", "192405.931000", "192405.934000", "192405.937000", "192405.940000", "192405.943000", "192405.946000", "192405.949000", "192405.952000", "192445.862000", "192445.865000", "192445.868000", "192445.871000", "192445.874000", "192445.877000", "192445.880000", "192445.883000", "192445.886000", "192445.889000", "192445.901000", "192445.904000", "192445.907000", "192445.910000", "192445.913000", "192445.916000", "192445.919000", "192445.922000", "192445.925000", "192445.928000", "192445.931000", "192445.934000", "192445.937000", "192445.940000", "192445.943000", "192445.946000", "192445.949000", "192445.952000", "192445.955000", "192445.958000", "192445.961000", "192525.863000", "192525.866000", "192525.869000", "192525.872000", "192525.875000", "192525.878000", "192525.881000", "192525.884000", "192525.887000", "192525.890000", "192525.893000", "192525.896000", "192525.899000", "192525.902000", "192525.905000", "192525.907000", "192525.910000", "192525.913000", "192525.916000", "192525.919000", "192525.922000", "192525.925000", "192525.928000", "192525.931000", "192525.934000", "192525.937000", "192525.940000", "192525.943000", "192525.946000", "192525.949000", "192525.952000", "192605.863000", "192605.866000", "192605.869000", "192605.872000", "192605.875000", "192605.878000", "192605.881000", "192605.884000", "192605.887000", "192605.891000", "192605.894000", "192605.897000", "192605.900000", "192605.903000", "192605.906000", "192605.909000", "192605.912000", "192605.915000", "192605.918000", "192605.921000", "192605.923000", "192605.926000", "192605.929000", "192605.932000", "192605.935000", "192605.938000", "192605.941000", "192605.944000", "192605.947000", "192605.950000", "192645.862000", "192645.865000", "192645.868000", "192645.871000", "192645.874000", "192645.877000", "192645.880000", "192645.883000", "192645.886000", "192645.889000", "192645.892000", "192645.895000", "192645.898000", "192645.911000", "192645.914000", "192645.917000", "192645.920000", "192645.923000", "192645.926000", "192645.929000", "192645.932000", "192645.935000", "192645.938000", "192645.941000", "192645.944000", "192645.947000", "192645.950000", "192645.953000", "192645.956000", "192645.959000", "192645.962000", "192725.863000", "192725.866000", "192725.869000", "192725.872000", "192725.875000", "192725.878000", "192725.881000", "192725.884000", "192725.887000", "192725.890000", "192725.893000", "192725.896000", "192725.899000", "192725.902000", "192725.905000", "192725.908000", "192725.911000", "192725.914000", "192725.917000", "192725.920000", "192725.923000", "192725.926000", "192725.929000", "192725.932000", "192725.935000", "192725.938000", "192725.941000", "192725.944000", "192725.947000", "192725.950000", "192725.953000", "192805.863000", "192805.866000", "192805.869000", "192805.872000", "192805.875000", "192805.878000", "192805.881000", "192805.884000", "192805.887000", "192805.890000", "192805.893000", "192805.896000", "192805.899000", "192805.902000", "192805.905000", "192805.908000", "192805.911000", "192805.914000", "192805.917000", "192805.920000", "192805.923000", "192805.926000", "192805.929000", "192805.932000", "192805.935000", "192805.938000", "192805.941000", "192805.944000", "192805.947000", "192805.950000", "192805.953000", "192845.863000", "192845.866000", "192845.869000", "192845.872000", "192845.875000", "192845.878000", "192845.881000", "192845.884000", "192845.887000", "192845.890000", "192845.893000", "192845.896000", "192845.899000", "192845.902000", "192845.905000", "192845.908000", "192845.910000", "192845.913000", "192845.916000", "192845.919000", "192845.922000", "192845.925000", "192845.928000", "192845.931000", "192845.934000", "192845.937000", "192845.940000", "192845.943000", "192845.946000", "192845.949000", "192845.952000", "192905.364000", "192905.368000", "192905.371000", "192905.374000", "192905.377000", "192905.380000", "192905.383000", "192905.386000", "192905.389000", "192905.392000", "192905.395000", "192905.398000", "192905.400000", "192905.403000", "192905.406000"],
      "InstanceNumber": [1, 2, 3, 4, 5, 6, 7, 8, 9, 10, 11, 12, 13, 14, 15, 16, 17, 18, 19, 20, 21, 22, 23, 24, 25, 26, 27, 28, 29, 30, 31, 32, 33, 34, 35, 36, 37, 38, 39, 40, 41, 42, 43, 44, 45, 46, 47, 48, 49, 50, 51, 52, 53, 54, 55, 56, 57, 58, 59, 60, 61, 62, 63, 64, 65, 66, 67, 68, 69, 70, 71, 72, 73, 74, 75, 76, 77, 78, 79, 80, 81, 82, 83, 84, 85, 86, 87, 88, 89, 90, 91, 92, 93, 94, 95, 96, 97, 98, 99, 100, 101, 102, 103, 104, 105, 106, 107, 108, 109, 110, 111, 112, 113, 114, 115, 116, 117, 118, 119, 120, 121, 122, 123, 124, 125, 126, 127, 128, 129, 130, 131, 132, 133, 134, 135, 136, 137, 138, 139, 140, 141, 142, 143, 144, 145, 146, 147, 148, 149, 150, 151, 152, 153, 154, 155, 156, 157, 158, 159, 160, 161, 162, 163, 164, 165, 166, 167, 168, 169, 170, 171, 172, 173, 174, 175, 176, 177, 178, 179, 180, 181, 182, 183, 184, 185, 186, 187, 188, 189, 190, 191, 192, 193, 194, 195, 196, 197, 198, 199, 200, 201, 202, 203, 204, 205, 206, 207, 208, 209, 210, 211, 212, 213, 214, 215, 216, 217, 218, 219, 220, 221, 222, 223, 224, 225, 226, 227, 228, 229, 230, 231, 232, 233, 234, 235, 236, 237, 238, 239, 240, 241, 242, 243, 244, 245, 246, 247, 248, 249, 250, 251, 252, 253, 254, 255, 256, 257, 258, 259, 260, 261, 262, 263, 264, 265, 266, 267, 268, 269, 270, 271, 272, 273, 274, 275, 276, 277, 278, 279, 280, 281, 282, 283, 284, 285, 286, 287, 288, 289, 290, 291, 292, 293, 294, 295, 296, 297, 298, 299, 300, 301, 302, 303, 304, 305, 306, 307, 308, 309, 310, 311, 312, 313, 314, 315, 316, 317, 318, 319, 320, 321, 322, 323, 324],
      "LargestImagePixelValue": [27453, 26958, 26620, 26422, 26295, 26050, 26038, 25998, 25801, 25994, 26142, 25920, 26024, 26037, 25830, 26156, 26108, 26158, 26288, 26147, 25685, 25573, 25537, 25697, 25771, 25774, 26063, 25955, 25905, 25836, 25993, 25711, 25815, 25844, 25656, 25670, 25709, 25857, 25582, 25255, 25141, 25164, 25314, 26163, 25969, 26525, 26708, 25351, 26005, 26555, 27066, 25157, 25508, 25829, 25586, 25747, 26072, 27203, 27462, 26755, 26063, 26020, 25134, 27505, 26763, 26596, 27094, 26894, 26918, 26592, 26866, 27054, 26866, 26953, 26784, 26375, 26451, 26171, 26330, 26299, 26349, 26459, 26397, 26246, 26471, 26735, 26614, 26575, 26596, 26222, 24957, 25175, 25442, 26534, 26060, 27731, 26011, 26267, 25957, 24709, 26295, 30507, 28023, 27996, 27838, 28891, 27023, 26719, 25807, 25760, 25314, 25086, 29240, 27766, 27130, 26686, 27308, 27153, 26440, 26371, 26664, 26701, 26768, 26582, 26273, 25865, 25859, 25281, 26166, 25900, 26232, 26333, 25616, 26076, 24992, 25287, 27100, 29778, 26059, 26782, 26517, 26700, 26979, 26827, 26110, 26770, 25925, 26406, 25686, 27112, 30090, 27144, 27998, 27585, 27405, 26714, 25286, 28078, 26666, 26352, 26023, 25759, 26518, 25586, 25254, 25076, 25046, 25299, 25818, 25675, 25759, 25689, 25497, 25734, 25981, 26394, 25356, 26044, 25079, 24808, 25581, 25196, 25079, 25222, 25204, 25187, 26527, 25401, 25365, 25795, 25563, 25432, 25542, 25697, 24864, 25534, 26193, 26170, 26322, 26307, 25546, 27123, 28909, 27868, 27918, 27339, 25086, 25089, 25251, 24681, 24812, 24374, 24952, 24835, 25106, 24601, 25429, 25262, 26116, 25024, 25310, 25089, 25403, 24989, 25342, 25318, 25971, 25214, 25140, 25726, 26108, 28895, 28264, 27713, 27320, 27471, 27902, 26732, 30539, 27677, 26200, 25943, 25924, 27890, 31902, 28890, 27957, 27945, 28579, 27869, 29050, 28144, 27241, 25328, 28188, 28384, 26759, 26419, 26736, 25678, 26025, 25438, 25887, 25666, 26451, 26188, 25978, 26105, 26278, 26497, 25942, 26484, 26641, 26575, 26946, 27170, 27380, 27436, 27149, 30516, 29447, 28514, 28942, 27431, 27177, 26099, 29562, 27402, 27424, 26966, 27104, 27258, 27022, 27959, 27900, 26544, 26448, 27174, 27950, 26419, 29022, 26955, 27106, 26893, 27256, 28004, 27449, 27457, 26925, 26898, 26738, 26445, 26543, 26451, 26819, 26811, 26702, 26856, 26632, 26900, 26637, 26762, 26782, 26718],
      "WindowCenter": [7801.0, 7768.0, 7745.0, 7741.0, 7731.0, 7722.0, 7719.0, 7710.0, 7709.0, 7720.0, 7730.0, 7731.0, 7722.0, 7709.0, 7708.0, 7716.0, 7717.0, 7716.0, 7709.0, 7708.0, 7698.0, 7698.0, 7689.0, 7698.0, 7705.0, 7717.0, 7721.0, 7723.0, 7719.0, 7699.0, 7688.0, 7686.0, 7688.0, 7698.0, 7699.0, 7698.0, 7699.0, 7710.0, 7709.0, 7701.0, 7692.0, 7692.0, 7691.0, 7723.0, 7747.0, 7765.0, 7754.0, 7704.0, 7755.0, 7742.0, 7757.0, 7650.0, 7741.0, 7763.0, 7765.0, 7752.0, 7749.0, 7759.0, 7779.0, 7782.0, 7758.0, 7748.0, 7737.0, 7750.0, 7758.0, 7752.0, 7777.0, 7758.0, 7750.0, 7741.0, 7737.0, 7746.0, 7736.0, 7745.0, 7747.0, 7728.0, 7727.0, 7687.0, 7694.0, 7687.0, 7697.0, 7697.0, 7685.0, 7686.0, 7704.0, 7692.0, 7702.0, 7633.0, 7373.0, 7662.0, 7602.0, 7603.0, 7608.0, 7533.0, 7577.0, 7740.0, 7699.0, 7704.0, 7683.0, 7448.0, 7471.0, 7638.0, 7683.0, 7683.0, 7684.0, 7594.0, 7660.0, 7753.0, 7737.0, 7732.0, 7701.0, 7486.0, 7621.0, 7752.0, 7735.0, 7711.0, 7731.0, 7743.0, 7726.0, 7704.0, 7703.0, 7701.0, 7710.0, 7678.0, 7674.0, 7712.0, 7690.0, 7661.0, 7674.0, 7688.0, 7708.0, 7718.0, 7714.0, 7703.0, 7686.0, 7670.0, 7539.0, 7668.0, 7644.0, 7688.0, 7664.0, 7606.0, 7504.0, 7690.0, 7676.0, 7703.0, 7678.0, 7686.0, 7651.0, 7545.0, 7466.0, 7651.0, 7642.0, 7619.0, 7608.0, 7483.0, 7431.0, 7659.0, 7619.0, 7618.0, 7600.0, 7467.0, 7678.0, 7669.0, 7676.0, 7666.0, 7637.0, 7649.0, 7646.0, 7635.0, 7630.0, 7628.0, 7614.0, 7604.0, 7622.0, 7643.0, 7631.0, 7648.0, 7611.0, 7601.0, 7616.0, 7618.0, 7610.0, 7618.0, 7608.0, 7593.0, 7641.0, 7651.0, 7654.0, 7658.0, 7594.0, 7672.0, 7677.0, 7689.0, 7596.0, 7641.0, 7711.0, 7709.0, 7698.0, 7708.0, 7620.0, 7753.0, 7783.0, 7777.0, 7777.0, 7761.0, 7624.0, 7684.0, 7692.0, 7675.0, 7681.0, 7655.0, 7669.0, 7660.0, 7668.0, 7640.0, 7666.0, 7677.0, 7704.0, 7673.0, 7680.0, 7670.0, 7644.0, 7625.0, 7653.0, 7657.0, 7663.0, 7642.0, 7621.0, 7628.0, 7493.0, 7435.0, 7704.0, 7673.0, 7656.0, 7655.0, 7524.0, 7559.0, 7798.0, 7711.0, 7679.0, 7666.0, 7463.0, 7510.0, 7602.0, 7674.0, 7662.0, 7675.0, 7579.0, 7662.0, 7813.0, 7788.0, 7760.0, 7557.0, 7628.0, 7800.0, 7788.0, 7790.0, 7789.0, 7777.0, 7763.0, 7735.0, 7742.0, 7731.0, 7735.0, 7726.0, 7728.0, 7718.0, 7727.0, 7734.0, 7728.0, 7716.0, 7717.0, 7734.0, 7733.0, 7752.0, 7753.0, 7750.0, 7744.0, 7582.0, 7735.0, 7707.0, 7713.0, 7703.0, 7596.0, 7550.0, 7772.0, 7733.0, 7721.0, 7703.0, 7681.0, 7688.0, 7551.0, 7494.0, 7678.0, 7635.0, 7623.0, 7619.0, 7518.0, 7512.0, 7706.0, 7660.0, 7648.0, 7610.0, 7526.0, 7837.0, 7791.0, 7788.0, 7791.0, 7805.0, 7794.0, 7784.0, 7772.0, 7773.0, 7771.0, 7758.0, 7749.0, 7769.0, 7752.0, 7748.0, 7739.0, 7749.0, 7767.0, 7764.0],
