{
  "AcquisitionMatrixPE": 104,
  "AcquisitionNumber": 1,
  "AcquisitionTime": "12:16:11.140000",
  "BandwidthPerPixelPhaseEncode": 17.17,
  "BaseResolution": 104,
  "BodyPartExamined": "BRAIN",
  "ConsistencyInfo": "N4_VE11C_LATEST_20160120",
  "ConversionSoftware": "dcm2niix",
  "ConversionSoftwareVersion": "v1.0.20190410  GCC6.3.0",
  "DerivedVendorReportedEchoSpacing": 0.000560011,
  "DeviceSerialNumber": "166018",
  "DwellTime": 2.1e-06,
  "EchoTime": 0.035,
  "EchoTrainLength": 104,
  "EffectiveEchoSpacing": 0.000560011,
  "FlipAngle": 62,
  "ImageComments": "Unaliased_MB4_PE3_LB",
  "ImageOrientationPatientDICOM": [1, 0, 0, 0, 0.999986, 0.00523596],
  "ImageType": [
    "ORIGINAL",
    "PRIMARY",
    "M",
    "MB",
    "ND",
    "MOSAIC"
],
  "ImagingFrequency": 123.191,
  "InPlanePhaseEncodingDirectionDICOM": "COL",
  "InstitutionAddress": "Washington_Place_6_NYC_NYC_US_10003",
  "InstitutionName": "NYU_Center_for_Brain_Imaging",
  "InstitutionalDepartmentName": "Department",
  "MRAcquisitionType": "2D",
  "MagneticFieldStrength": 3,
  "Manufacturer": "Siemens",
  "ManufacturersModelName": "Prisma",
  "Modality": "MR",
  "MultibandAccelerationFactor": 4,
  "PartialFourier": 1,
  "PatientPosition": "HFS",
  "PercentPhaseFOV": 100,
  "PhaseEncodingDirection": "j-",
  "PhaseEncodingSteps": 104,
  "PhaseResolution": 1,
  "PixelBandwidth": 2290,
  "ProcedureStepDescription": "",
  "ProtocolName": "epi_MB4_2mm_motion",
  "PulseSequenceDetails": "%CustomerSeq%_cmrr_mbep2d_bold",
  "ReceiveCoilActiveElements": "HEA;HEP",
  "ReceiveCoilName": "Head_32",
  "ReconMatrixPE": 104,
  "RepetitionTime": 1.3,
  "SAR": 0.111947,
  "ScanOptions": "FS",
  "ScanningSequence": "EP",
  "SequenceName": "epfid2d1_104",
  "SequenceVariant": "SK_SS",
  "SeriesDescription": "epi_MB4_2mm_motion",
  "SeriesNumber": 5,
  "ShimSetting": [274, -12677, -8477, 164, 28, 91, 17, 16],
  "SliceThickness": 2,
  "SliceTiming": [0, 0.56, 1.12, 0.4, 0.96, 0.24, 0.8, 0.08, 0.64, 1.2, 0.48, 1.04, 0.32, 0.88, 0.16, 0.72, 0, 0.56, 1.12, 0.4, 0.96, 0.24, 0.8, 0.08, 0.64, 1.2, 0.48, 1.04, 0.32, 0.88, 0.16, 0.72, 0, 0.56, 1.12, 0.4, 0.96, 0.24, 0.8, 0.08, 0.64, 1.2, 0.48, 1.04, 0.32, 0.88, 0.16, 0.72, 0, 0.56, 1.12, 0.4, 0.96, 0.24, 0.8, 0.08, 0.64, 1.2, 0.48, 1.04, 0.32, 0.88, 0.16, 0.72],
  "SoftwareVersions": "syngo_MR_E11",
  "SpacingBetweenSlices": 2,
  "StationName": "AWP166018",
  "TaskName": "TASK",
  "TotalReadoutTime": 0.0576811,
  "TxRefAmp": 318.792,
  "WipMemBlock": "8dbb1c3f-776e-4fb7-934a-c7a364b71750||Sequence: R016 ve11c/master r/8780670; Nov 27 2017 15:05:12 by eja",
  "dcmmeta_affine": [
    [-2.0, 0.0, 0.0, 104.0],
    [0.0, 1.9999725818634033, 0.010471927002072334, -91.55579376220703],
    [0.0, -0.010471927002072334, 1.9999725818634033, -31.58404541015625],
    [0.0, 0.0, 0.0, 1.0]
],
  "dcmmeta_reorient_transform": [
    [0.0, -1.0, 0.0, 103.0],
    [1.0, 0.0, 0.0, 0.0],
    [0.0, 0.0, 1.0, 0.0],
    [0.0, 0.0, 0.0, 1.0]
],
  "dcmmeta_shape": [104, 104, 64, 324],
  "dcmmeta_slice_dim": 2,
  "dcmmeta_version": 0.6,
  "global": {
    "const": {
      "AccessionNumber": "jyudnks9",
      "AcquisitionMatrix": [104, 0, 0, 104],
      "AngioFlag": "N",
      "BitsAllocated": 16,
      "BitsStored": 16,
      "BodyPartExamined": "BRAIN",
      "Columns": 832,
      "EchoNumbers": 1,
      "EchoTime": 35.0,
      "EchoTrainLength": 104,
      "FlipAngle": 62.0,
      "HighBit": 15,
      "ImageOrientationPatient": [1.0, 0.0, 0.0, 0.0, 0.99998629224893, 0.00523596354377],
      "ImagePositionPatient": [-832.0, -842.4314052097, -36.474436139851],
      "ImageType": [
        "ORIGINAL",
        "PRIMARY",
        "M",
        "MB",
        "ND",
        "MOSAIC"
],
      "ImagedNucleus": "1H",
      "ImagingFrequency": 123.191066,
      "InPlanePhaseEncodingDirection": "COL",
      "MRAcquisitionType": "2D",
      "MagneticFieldStrength": 3.0,
      "Manufacturer": "SIEMENS",
      "ManufacturerModelName": "Prisma",
      "Modality": "MR",
      "NumberOfAverages": 1.0,
      "NumberOfPhaseEncodingSteps": 104,
      "PercentPhaseFieldOfView": 100.0,
      "PercentSampling": 100.0,
      "PerformedProcedureStepStartTime": "114209.339000",
      "PhotometricInterpretation": "MONOCHROME2",
      "PixelBandwidth": 2290.0,
      "PixelRepresentation": 0,
      "PixelSpacing": [2.0, 2.0],
      "ProtocolName": "epi_MB4_2mm_motion",
      "RepetitionTime": 1300.0,
      "Rows": 832,
      "SAR": 0.11194734072491,
      "SamplesPerPixel": 1,
      "ScanOptions": "FS",
      "ScanningSequence": "EP",
      "SequenceName": "epfid2d1_104",
      "SequenceVariant": [
        "SK",
        "SS"
],
      "SeriesDescription": "epi_MB4_2mm_motion",
      "SeriesNumber": 5,
      "SeriesTime": "121648.617000",
      "SliceLocation": -32.062996031556,
      "SliceThickness": 2.0,
      "SmallestImagePixelValue": 0,
      "SoftwareVersions": "syngo MR E11",
      "SpacingBetweenSlices": 1.9999999860506,
      "SpecificCharacterSet": "ISO_IR 100",
      "StudyID": "1",
      "StudyTime": "114209.155000",
      "TransmitCoilName": "Body",
      "VariableFlipAngleFlag": "N",
      "WindowCenterWidthExplanation": "Algo1",
      "dBdt": 0.0},
    "slices": {}
  },
  "time": {
    "samples": {
      "AcquisitionNumber": [1, 2, 3, 4, 5, 6, 7, 8, 9, 10, 11, 12, 13, 14, 15, 16, 17, 18, 19, 20, 21, 22, 23, 24, 25, 26, 27, 28, 29, 30, 31, 32, 33, 34, 35, 36, 37, 38, 39, 40, 41, 42, 43, 44, 45, 46, 47, 48, 49, 50, 51, 52, 53, 54, 55, 56, 57, 58, 59, 60, 61, 62, 63, 64, 65, 66, 67, 68, 69, 70, 71, 72, 73, 74, 75, 76, 77, 78, 79, 80, 81, 82, 83, 84, 85, 86, 87, 88, 89, 90, 91, 92, 93, 94, 95, 96, 97, 98, 99, 100, 101, 102, 103, 104, 105, 106, 107, 108, 109, 110, 111, 112, 113, 114, 115, 116, 117, 118, 119, 120, 121, 122, 123, 124, 125, 126, 127, 128, 129, 130, 131, 132, 133, 134, 135, 136, 137, 138, 139, 140, 141, 142, 143, 144, 145, 146, 147, 148, 149, 150, 151, 152, 153, 154, 155, 156, 157, 158, 159, 160, 161, 162, 163, 164, 165, 166, 167, 168, 169, 170, 171, 172, 173, 174, 175, 176, 177, 178, 179, 180, 181, 182, 183, 184, 185, 186, 187, 188, 189, 190, 191, 192, 193, 194, 195, 196, 197, 198, 199, 200, 201, 202, 203, 204, 205, 206, 207, 208, 209, 210, 211, 212, 213, 214, 215, 216, 217, 218, 219, 220, 221, 222, 223, 224, 225, 226, 227, 228, 229, 230, 231, 232, 233, 234, 235, 236, 237, 238, 239, 240, 241, 242, 243, 244, 245, 246, 247, 248, 249, 250, 251, 252, 253, 254, 255, 256, 257, 258, 259, 260, 261, 262, 263, 264, 265, 266, 267, 268, 269, 270, 271, 272, 273, 274, 275, 276, 277, 278, 279, 280, 281, 282, 283, 284, 285, 286, 287, 288, 289, 290, 291, 292, 293, 294, 295, 296, 297, 298, 299, 300, 301, 302, 303, 304, 305, 306, 307, 308, 309, 310, 311, 312, 313, 314, 315, 316, 317, 318, 319, 320, 321, 322, 323, 324],
      "AcquisitionTime": ["121611.140000", "121612.440000", "121613.740000", "121615.040000", "121616.340000", "121617.640000", "121618.940000", "121620.240000", "121621.540000", "121622.840000", "121624.140000", "121625.440000", "121626.740000", "121628.040000", "121629.340000", "121630.640000", "121631.940000", "121633.240000", "121634.540000", "121635.840000", "121637.140000", "121638.440000", "121639.740000", "121641.040000", "121642.340000", "121643.640000", "121644.940000", "121646.240000", "121647.540000", "121648.840000", "121650.140000", "121651.440000", "121652.740000", "121654.040000", "121655.340000", "121656.640000", "121657.940000", "121659.240000", "121700.540000", "121701.840000", "121703.140000", "121704.440000", "121705.740000", "121707.040000", "121708.340000", "121709.640000", "121710.940000", "121712.240000", "121713.540000", "121714.840000", "121716.140000", "121717.440000", "121718.740000", "121720.040000", "121721.340000", "121722.640000", "121723.940000", "121725.240000", "121726.540000", "121727.840000", "121729.140000", "121730.440000", "121731.740000", "121733.040000", "121734.340000", "121735.640000", "121736.940000", "121738.240000", "121739.540000", "121740.840000", "121742.140000", "121743.440000", "121744.740000", "121746.040000", "121747.340000", "121748.640000", "121749.940000", "121751.240000", "121752.540000", "121753.840000", "121755.140000", "121756.440000", "121757.740000", "121759.040000", "121800.340000", "121801.640000", "121802.940000", "121804.240000", "121805.540000", "121806.840000", "121808.140000", "121809.440000", "121810.740000", "121812.040000", "121813.340000", "121814.640000", "121815.940000", "121817.240000", "121818.540000", "121819.840000", "121821.140000", "121822.440000", "121823.740000", "121825.040000", "121826.340000", "121827.640000", "121828.940000", "121830.240000", "121831.540000", "121832.840000", "121834.140000", "121835.440000", "121836.740000", "121838.040000", "121839.340000", "121840.640000", "121841.940000", "121843.240000", "121844.540000", "121845.840000", "121847.140000", "121848.440000", "121849.740000", "121851.040000", "121852.340000", "121853.640000", "121854.940000", "121856.240000", "121857.540000", "121858.840000", "121900.140000", "121901.440000", "121902.740000", "121904.040000", "121905.340000", "121906.640000", "121907.940000", "121909.240000", "121910.540000", "121911.840000", "121913.140000", "121914.440000", "121915.740000", "121917.040000", "121918.340000", "121919.640000", "121920.940000", "121922.240000", "121923.540000", "121924.840000", "121926.140000", "121927.440000", "121928.740000", "121930.040000", "121931.340000", "121932.640000", "121933.940000", "121935.240000", "121936.540000", "121937.840000", "121939.140000", "121940.440000", "121941.740000", "121943.040000", "121944.340000", "121945.640000", "121946.940000", "121948.240000", "121949.540000", "121950.840000", "121952.140000", "121953.440000", "121954.740000", "121956.040000", "121957.340000", "121958.640000", "121959.940000", "122001.240000", "122002.540000", "122003.840000", "122005.140000", "122006.440000", "122007.740000", "122009.040000", "122010.340000", "122011.640000", "122012.940000", "122014.240000", "122015.540000", "122016.840000", "122018.140000", "122019.440000", "122020.740000", "122022.040000", "122023.340000", "122024.640000", "122025.940000", "122027.240000", "122028.540000", "122029.840000", "122031.140000", "122032.440000", "122033.740000", "122035.040000", "122036.340000", "122037.640000", "122038.940000", "122040.240000", "122041.540000", "122042.840000", "122044.140000", "122045.440000", "122046.740000", "122048.040000", "122049.340000", "122050.640000", "122051.940000", "122053.240000", "122054.540000", "122055.840000", "122057.140000", "122058.440000", "122059.740000", "122101.040000", "122102.340000", "122103.640000", "122104.940000", "122106.240000", "122107.540000", "122108.840000", "122110.140000", "122111.440000", "122112.740000", "122114.040000", "122115.340000", "122116.640000", "122117.940000", "122119.240000", "122120.540000", "122121.840000", "122123.140000", "122124.440000", "122125.740000", "122127.040000", "122128.340000", "122129.640000", "122130.940000", "122132.240000", "122133.540000", "122134.840000", "122136.140000", "122137.440000", "122138.740000", "122140.040000", "122141.340000", "122142.640000", "122143.940000", "122145.240000", "122146.540000", "122147.840000", "122149.140000", "122150.440000", "122151.740000", "122153.040000", "122154.340000", "122155.640000", "122156.940000", "122158.240000", "122159.540000", "122200.840000", "122202.140000", "122203.440000", "122204.740000", "122206.040000", "122207.340000", "122208.640000", "122209.940000", "122211.240000", "122212.540000", "122213.840000", "122215.140000", "122216.440000", "122217.740000", "122219.040000", "122220.340000", "122221.640000", "122222.940000", "122224.240000", "122225.540000", "122226.840000", "122228.140000", "122229.440000", "122230.740000", "122232.040000", "122233.340000", "122234.640000", "122235.940000", "122237.240000", "122238.540000", "122239.840000", "122241.140000", "122242.440000", "122243.740000", "122245.040000", "122246.340000", "122247.640000", "122248.940000", "122250.240000", "122251.540000", "122252.840000", "122254.140000", "122255.440000", "122256.740000", "122258.040000", "122259.340000", "122300.640000", "122301.940000", "122303.240000", "122304.540000", "122305.840000", "122307.140000", "122308.440000", "122309.740000", "122311.040000"],
      "ContentTime": ["121648.620000", "121648.623000", "121648.627000", "121648.630000", "121648.633000", "121648.636000", "121648.639000", "121648.642000", "121648.645000", "121648.651000", "121648.654000", "121648.657000", "121648.660000", "121648.663000", "121648.666000", "121648.669000", "121648.672000", "121648.675000", "121648.681000", "121648.684000", "121648.686000", "121648.689000", "121648.692000", "121648.695000", "121648.698000", "121648.701000", "121648.704000", "121648.707000", "121728.567000", "121728.570000", "121728.573000", "121728.576000", "121728.579000", "121728.582000", "121728.585000", "121728.588000", "121728.591000", "121728.594000", "121728.596000", "121728.600000", "121728.602000", "121728.605000", "121728.608000", "121728.611000", "121728.614000", "121728.617000", "121728.620000", "121728.625000", "121728.644000", "121728.647000", "121728.649000", "121728.652000", "121728.655000", "121728.658000", "121728.661000", "121728.664000", "121728.667000", "121728.670000", "121728.680000", "121808.566000", "121808.572000", "121808.575000", "121808.578000", "121808.581000", "121808.584000", "121808.587000", "121808.590000", "121808.592000", "121808.595000", "121808.598000", "121808.601000", "121808.604000", "121808.607000", "121808.610000", "121808.613000", "121808.616000", "121808.619000", "121808.622000", "121808.625000", "121808.628000", "121808.631000", "121808.634000", "121808.637000", "121808.640000", "121808.642000", "121808.645000", "121808.648000", "121808.651000", "121808.654000", "121848.566000", "121848.569000", "121848.572000", "121848.575000", "121848.578000", "121848.581000", "121848.584000", "121848.587000", "121848.590000", "121848.603000", "121848.606000", "121848.609000", "121848.612000", "121848.615000", "121848.617000", "121848.620000", "121848.623000", "121848.626000", "121848.629000", "121848.632000", "121848.635000", "121848.638000", "121848.641000", "121848.644000", "121848.647000", "121848.650000", "121848.653000", "121848.656000", "121848.659000", "121848.662000", "121848.664000", "121928.567000", "121928.570000", "121928.573000", "121928.576000", "121928.579000", "121928.582000", "121928.585000", "121928.588000", "121928.591000", "121928.594000", "121928.597000", "121928.600000", "121928.603000", "121928.605000", "121928.608000", "121928.611000", "121928.614000", "121928.617000", "121928.620000", "121928.623000", "121928.626000", "121928.629000", "121928.632000", "121928.635000", "121928.638000", "121928.641000", "121928.644000", "121928.647000", "121928.650000", "121928.653000", "121928.655000", "122008.567000", "122008.570000", "122008.573000", "122008.576000", "122008.579000", "122008.582000", "122008.585000", "122008.588000", "122008.591000", "122008.594000", "122008.597000", "122008.600000", "122008.603000", "122008.606000", "122008.609000", "122008.612000", "122008.615000", "122008.618000", "122008.621000", "122008.624000", "122008.626000", "122008.629000", "122008.632000", "122008.635000", "122008.638000", "122008.641000", "122008.644000", "122008.647000", "122008.650000", "122008.653000", "122008.656000", "122048.566000", "122048.569000", "122048.572000", "122048.575000", "122048.578000", "122048.581000", "122048.584000", "122048.587000", "122048.590000", "122048.593000", "122048.596000", "122048.599000", "122048.602000", "122048.605000", "122048.608000", "122048.611000", "122048.614000", "122048.617000", "122048.619000", "122048.622000", "122048.625000", "122048.628000", "122048.631000", "122048.634000", "122048.637000", "122048.640000", "122048.643000", "122048.646000", "122048.649000", "122048.652000", "122048.655000", "122128.566000", "122128.569000", "122128.572000", "122128.575000", "122128.578000", "122128.581000", "122128.584000", "122128.587000", "122128.590000", "122128.593000", "122128.596000", "122128.599000", "122128.602000", "122128.605000", "122128.608000", "122128.611000", "122128.614000", "122128.617000", "122128.620000", "122128.623000", "122128.626000", "122128.629000", "122128.646000", "122128.649000", "122128.652000", "122128.655000", "122128.658000", "122128.661000", "122128.663000", "122128.666000", "122208.567000", "122208.570000", "122208.573000", "122208.576000", "122208.579000", "122208.582000", "122208.585000", "122208.588000", "122208.591000", "122208.594000", "122208.597000", "122208.600000", "122208.603000", "122208.606000", "122208.609000", "122208.612000", "122208.615000", "122208.618000", "122208.621000", "122208.624000", "122208.627000", "122208.630000", "122208.633000", "122208.636000", "122208.639000", "122208.641000", "122208.645000", "122208.647000", "122208.650000", "122208.653000", "122208.656000", "122248.566000", "122248.574000", "122248.576000", "122248.579000", "122248.582000", "122248.586000", "122248.589000", "122248.592000", "122248.595000", "122248.598000", "122248.601000", "122248.604000", "122248.607000", "122248.610000", "122248.613000", "122248.616000", "122248.619000", "122248.622000", "122248.625000", "122248.628000", "122248.631000", "122248.634000", "122248.637000", "122248.639000", "122248.642000", "122248.645000", "122248.648000", "122248.651000", "122248.654000", "122248.657000", "122248.660000", "122312.819000", "122312.822000", "122312.825000", "122312.828000", "122312.836000", "122312.839000", "122312.842000", "122312.844000", "122312.848000", "122312.850000", "122312.853000", "122312.856000", "122312.859000", "122312.862000", "122312.865000", "122312.868000", "122312.871000", "122312.874000", "122312.877000"],
      "InstanceCreationTime": ["121648.620000", "121648.623000", "121648.627000", "121648.630000", "121648.633000", "121648.636000", "121648.639000", "121648.642000", "121648.645000", "121648.651000", "121648.654000", "121648.657000", "121648.660000", "121648.663000", "121648.666000", "121648.669000", "121648.672000", "121648.675000", "121648.681000", "121648.684000", "121648.686000", "121648.689000", "121648.692000", "121648.695000", "121648.698000", "121648.701000", "121648.704000", "121648.707000", "121728.567000", "121728.570000", "121728.573000", "121728.576000", "121728.579000", "121728.582000", "121728.585000", "121728.588000", "121728.591000", "121728.594000", "121728.596000", "121728.600000", "121728.602000", "121728.605000", "121728.608000", "121728.611000", "121728.614000", "121728.617000", "121728.620000", "121728.625000", "121728.644000", "121728.647000", "121728.649000", "121728.652000", "121728.655000", "121728.658000", "121728.661000", "121728.664000", "121728.667000", "121728.670000", "121728.680000", "121808.566000", "121808.572000", "121808.575000", "121808.578000", "121808.581000", "121808.584000", "121808.587000", "121808.590000", "121808.592000", "121808.595000", "121808.598000", "121808.601000", "121808.604000", "121808.607000", "121808.610000", "121808.613000", "121808.616000", "121808.619000", "121808.622000", "121808.625000", "121808.628000", "121808.631000", "121808.634000", "121808.637000", "121808.640000", "121808.642000", "121808.645000", "121808.648000", "121808.651000", "121808.654000", "121848.566000", "121848.569000", "121848.572000", "121848.575000", "121848.578000", "121848.581000", "121848.584000", "121848.587000", "121848.590000", "121848.603000", "121848.606000", "121848.609000", "121848.612000", "121848.615000", "121848.617000", "121848.620000", "121848.623000", "121848.626000", "121848.629000", "121848.632000", "121848.635000", "121848.638000", "121848.641000", "121848.644000", "121848.647000", "121848.650000", "121848.653000", "121848.656000", "121848.659000", "121848.662000", "121848.664000", "121928.567000", "121928.570000", "121928.573000", "121928.576000", "121928.579000", "121928.582000", "121928.585000", "121928.588000", "121928.591000", "121928.594000", "121928.597000", "121928.600000", "121928.603000", "121928.605000", "121928.608000", "121928.611000", "121928.614000", "121928.617000", "121928.620000", "121928.623000", "121928.626000", "121928.629000", "121928.632000", "121928.635000", "121928.638000", "121928.641000", "121928.644000", "121928.647000", "121928.650000", "121928.653000", "121928.655000", "122008.567000", "122008.570000", "122008.573000", "122008.576000", "122008.579000", "122008.582000", "122008.585000", "122008.588000", "122008.591000", "122008.594000", "122008.597000", "122008.600000", "122008.603000", "122008.606000", "122008.609000", "122008.612000", "122008.615000", "122008.618000", "122008.621000", "122008.624000", "122008.626000", "122008.629000", "122008.632000", "122008.635000", "122008.638000", "122008.641000", "122008.644000", "122008.647000", "122008.650000", "122008.653000", "122008.656000", "122048.566000", "122048.569000", "122048.572000", "122048.575000", "122048.578000", "122048.581000", "122048.584000", "122048.587000", "122048.590000", "122048.593000", "122048.596000", "122048.599000", "122048.602000", "122048.605000", "122048.608000", "122048.611000", "122048.614000", "122048.617000", "122048.619000", "122048.622000", "122048.625000", "122048.628000", "122048.631000", "122048.634000", "122048.637000", "122048.640000", "122048.643000", "122048.646000", "122048.649000", "122048.652000", "122048.655000", "122128.566000", "122128.569000", "122128.572000", "122128.575000", "122128.578000", "122128.581000", "122128.584000", "122128.587000", "122128.590000", "122128.593000", "122128.596000", "122128.599000", "122128.602000", "122128.605000", "122128.608000", "122128.611000", "122128.614000", "122128.617000", "122128.620000", "122128.623000", "122128.626000", "122128.629000", "122128.646000", "122128.649000", "122128.652000", "122128.655000", "122128.658000", "122128.661000", "122128.663000", "122128.666000", "122208.567000", "122208.570000", "122208.573000", "122208.576000", "122208.579000", "122208.582000", "122208.585000", "122208.588000", "122208.591000", "122208.594000", "122208.597000", "122208.600000", "122208.603000", "122208.606000", "122208.609000", "122208.612000", "122208.615000", "122208.618000", "122208.621000", "122208.624000", "122208.627000", "122208.630000", "122208.633000", "122208.636000", "122208.639000", "122208.641000", "122208.645000", "122208.647000", "122208.650000", "122208.653000", "122208.656000", "122248.566000", "122248.574000", "122248.576000", "122248.579000", "122248.582000", "122248.586000", "122248.589000", "122248.592000", "122248.595000", "122248.598000", "122248.601000", "122248.604000", "122248.607000", "122248.610000", "122248.613000", "122248.616000", "122248.619000", "122248.622000", "122248.625000", "122248.628000", "122248.631000", "122248.634000", "122248.637000", "122248.639000", "122248.642000", "122248.645000", "122248.648000", "122248.651000", "122248.654000", "122248.657000", "122248.660000", "122312.819000", "122312.822000", "122312.825000", "122312.828000", "122312.836000", "122312.839000", "122312.842000", "122312.844000", "122312.848000", "122312.850000", "122312.853000", "122312.856000", "122312.859000", "122312.862000", "122312.865000", "122312.868000", "122312.871000", "122312.874000", "122312.877000"],
      "InstanceNumber": [1, 2, 3, 4, 5, 6, 7, 8, 9, 10, 11, 12, 13, 14, 15, 16, 17, 18, 19, 20, 21, 22, 23, 24, 25, 26, 27, 28, 29, 30, 31, 32, 33, 34, 35, 36, 37, 38, 39, 40, 41, 42, 43, 44, 45, 46, 47, 48, 49, 50, 51, 52, 53, 54, 55, 56, 57, 58, 59, 60, 61, 62, 63, 64, 65, 66, 67, 68, 69, 70, 71, 72, 73, 74, 75, 76, 77, 78, 79, 80, 81, 82, 83, 84, 85, 86, 87, 88, 89, 90, 91, 92, 93, 94, 95, 96, 97, 98, 99, 100, 101, 102, 103, 104, 105, 106, 107, 108, 109, 110, 111, 112, 113, 114, 115, 116, 117, 118, 119, 120, 121, 122, 123, 124, 125, 126, 127, 128, 129, 130, 131, 132, 133, 134, 135, 136, 137, 138, 139, 140, 141, 142, 143, 144, 145, 146, 147, 148, 149, 150, 151, 152, 153, 154, 155, 156, 157, 158, 159, 160, 161, 162, 163, 164, 165, 166, 167, 168, 169, 170, 171, 172, 173, 174, 175, 176, 177, 178, 179, 180, 181, 182, 183, 184, 185, 186, 187, 188, 189, 190, 191, 192, 193, 194, 195, 196, 197, 198, 199, 200, 201, 202, 203, 204, 205, 206, 207, 208, 209, 210, 211, 212, 213, 214, 215, 216, 217, 218, 219, 220, 221, 222, 223, 224, 225, 226, 227, 228, 229, 230, 231, 232, 233, 234, 235, 236, 237, 238, 239, 240, 241, 242, 243, 244, 245, 246, 247, 248, 249, 250, 251, 252, 253, 254, 255, 256, 257, 258, 259, 260, 261, 262, 263, 264, 265, 266, 267, 268, 269, 270, 271, 272, 273, 274, 275, 276, 277, 278, 279, 280, 281, 282, 283, 284, 285, 286, 287, 288, 289, 290, 291, 292, 293, 294, 295, 296, 297, 298, 299, 300, 301, 302, 303, 304, 305, 306, 307, 308, 309, 310, 311, 312, 313, 314, 315, 316, 317, 318, 319, 320, 321, 322, 323, 324],
      "LargestImagePixelValue": [27203, 26091, 25679, 25665, 25513, 25455, 25175, 25538, 25342, 25434, 25595, 25389, 25587, 25784, 25828, 25545, 25518, 25690, 25588, 25519, 25709, 25856, 25437, 25499, 25441, 25494, 25279, 25498, 25569, 25496, 25639, 25458, 25452, 25486, 25680, 25452, 25531, 25426, 25642, 25424, 24889, 24806, 25109, 24996, 24526, 25102, 25562, 25594, 26595, 26088, 25398, 25640, 25431, 25318, 25492, 25562, 25122, 24985, 25056, 24811, 25213, 24688, 24713, 24367, 24874, 24514, 24409, 25170, 25108, 24343, 24479, 25137, 24497, 24647, 24490, 24295, 24398, 24905, 24380, 24528, 24889, 24356, 24802, 24533, 24414, 24981, 27311, 29826, 26400, 25409, 25969, 27524, 33223, 27912, 27417, 26941, 26904, 27254, 30349, 27544, 25171, 25303, 25553, 24786, 30347, 28002, 26979, 26464, 24937, 27378, 25562, 25404, 25302, 25807, 25041, 24983, 24712, 24665, 25044, 24759, 24944, 24948, 24754, 25236, 25261, 25004, 24611, 24753, 24759, 24817, 24832, 24649, 24709, 24983, 26449, 29455, 26894, 24821, 25020, 25680, 27146, 27587, 25925, 25719, 25759, 26072, 26134, 24842, 27652, 26005, 26016, 25769, 25370, 25860, 26742, 26829, 26089, 25361, 25888, 28231, 29157, 25216, 24619, 25216, 24663, 24393, 24958, 24604, 24602, 25390, 24041, 23911, 24237, 24330, 24193, 24672, 24769, 24779, 24566, 24570, 24278, 24307, 24299, 24943, 24858, 25073, 24397, 25884, 24855, 24277, 24827, 24864, 24362, 23708, 23973, 24380, 23647, 25049, 24496, 24773, 24942, 24684, 25046, 24201, 24114, 24424, 24666, 23848, 23800, 24056, 24180, 23896, 24122, 24284, 24258, 24309, 24129, 24420, 24172, 24124, 24169, 24110, 24396, 24155, 24144, 24158, 24314, 24128, 22689, 30833, 27200, 25161, 25393, 28018, 29667, 26978, 26824, 27752, 27865, 25732, 24730, 29355, 29211, 28073, 26346, 26671, 25637, 28331, 27708, 27563, 27363, 24139, 28725, 26029, 24583, 25015, 25190, 24874, 24999, 25431, 25452, 24898, 24858, 25147, 24854, 24942, 24810, 25221, 25210, 25477, 25718, 25181, 25347, 25441, 24957, 25105, 24384, 27540, 26344, 25046, 24849, 25401, 25457, 25595, 24669, 25804, 25080, 24525, 24487, 24129, 24181, 28709, 25140, 24067, 24313, 24127, 26143, 28788, 26634, 25496, 26042, 25933, 25074, 25452, 24896, 24836, 24618, 25074, 24863, 24624, 25572, 26201, 24995, 25116, 25512, 25126, 24762, 25281, 25673, 25117, 25507, 25537, 25317, 25498],
      "WindowCenter": [7373.0, 7307.0, 7293.0, 7316.0, 7315.0, 7294.0, 7306.0, 7315.0, 7295.0, 7295.0, 7300.0, 7278.0, 7288.0, 7299.0, 7287.0, 7290.0, 7299.0, 7291.0, 7291.0, 7277.0, 7263.0, 7251.0, 7254.0, 7275.0, 7276.0, 7291.0, 7291.0, 7277.0, 7291.0, 7304.0, 7323.0, 7316.0, 7318.0, 7300.0, 7278.0, 7280.0, 7276.0, 7266.0, 7287.0, 7280.0, 7293.0, 7323.0, 7306.0, 7272.0, 7247.0, 7257.0, 7279.0, 7274.0, 7265.0, 7244.0, 7292.0, 7313.0, 7292.0, 7266.0, 7276.0, 7290.0, 7269.0, 7271.0, 7285.0, 7294.0, 7289.0, 7246.0, 7244.0, 7264.0, 7285.0, 7271.0, 7267.0, 7281.0, 7254.0, 7238.0, 7261.0, 7286.0, 7259.0, 7260.0, 7258.0, 7238.0, 7235.0, 7241.0, 7234.0, 7260.0, 7278.0, 7262.0, 7269.0, 7257.0, 7238.0, 7001.0, 6923.0, 7392.0, 7290.0, 7261.0, 7143.0, 7315.0, 7670.0, 7578.0, 7552.0, 7534.0, 7314.0, 7213.0, 7503.0, 7380.0, 7293.0, 7287.0, 7218.0, 7216.0, 7541.0, 7465.0, 7454.0, 7428.0, 7143.0, 7343.0, 7332.0, 7346.0, 7359.0, 7366.0, 7339.0, 7316.0, 7290.0, 7280.0, 7288.0, 7275.0, 7271.0, 7267.0, 7273.0, 7293.0, 7282.0, 7287.0, 7286.0, 7264.0, 7263.0, 7271.0, 7269.0, 7271.0, 7273.0, 7194.0, 7244.0, 7391.0, 7332.0, 7287.0, 7287.0, 7029.0, 7116.0, 7409.0, 7326.0, 7312.0, 7314.0, 7311.0, 7198.0, 6954.0, 7331.0, 7342.0, 7318.0, 7330.0, 7275.0, 7028.0, 7284.0, 7299.0, 7276.0, 7221.0, 7116.0, 7318.0, 7543.0, 7382.0, 7348.0, 7351.0, 7318.0, 7296.0, 7353.0, 7380.0, 7344.0, 7338.0, 7313.0, 7297.0, 7293.0, 7282.0, 7280.0, 7281.0, 7290.0, 7287.0, 7280.0, 7299.0, 7278.0, 7278.0, 7279.0, 7291.0, 7302.0, 7311.0, 7291.0, 7306.0, 7324.0, 7295.0, 7316.0, 7273.0, 7198.0, 7190.0, 7211.0, 7224.0, 7227.0, 7280.0, 7247.0, 7345.0, 7275.0, 7263.0, 7273.0, 7267.0, 7233.0, 7228.0, 7263.0, 7252.0, 7219.0, 7228.0, 7237.0, 7215.0, 7203.0, 7215.0, 7215.0, 7223.0, 7227.0, 7227.0, 7203.0, 7179.0, 7187.0, 7187.0, 7200.0, 7215.0, 7228.0, 7229.0, 7262.0, 7185.0, 7042.0, 7218.0, 7406.0, 7329.0, 7316.0, 7191.0, 7373.0, 7375.0, 7388.0, 7390.0, 7375.0, 7154.0, 7002.0, 7434.0, 7386.0, 7352.0, 7331.0, 7250.0, 7382.0, 7497.0, 7464.0, 7504.0, 7481.0, 7074.0, 7423.0, 7311.0, 7270.0, 7290.0, 7350.0, 7344.0, 7332.0, 7331.0, 7317.0, 7281.0, 7253.0, 7261.0, 7267.0, 7263.0, 7265.0, 7288.0, 7276.0, 7275.0, 7286.0, 7289.0, 7277.0, 7298.0, 7278.0, 7266.0, 7091.0, 7340.0, 7341.0, 7321.0, 7321.0, 7305.0, 7003.0, 7185.0, 7247.0, 7219.0, 7188.0, 7188.0, 7188.0, 7040.0, 6933.0, 7364.0, 7280.0, 7230.0, 7225.0, 7150.0, 6948.0, 7255.0, 7189.0, 7167.0, 7203.0, 7067.0, 7262.0, 7242.0, 7228.0, 7212.0, 7191.0, 7226.0, 7236.0, 7240.0, 7269.0, 7316.0, 7278.0, 7218.0, 7206.0, 7185.0, 7152.0, 7182.0, 7219.0, 7214.0, 7220.0, 7222.0, 7208.0, 7198.0],
