{
  "AcquisitionMatrixPE": 104,
  "AcquisitionNumber": 1,
  "AcquisitionTime": "20:01:21.355000",
  "BandwidthPerPixelPhaseEncode": 17.17,
  "BaseResolution": 104,
  "BodyPartExamined": "BRAIN",
  "ConsistencyInfo": "N4_VE11C_LATEST_20160120",
  "ConversionSoftware": "dcm2niix",
  "ConversionSoftwareVersion": "v1.0.20190410  GCC6.3.0",
  "DerivedVendorReportedEchoSpacing": 0.000560011,
  "DeviceSerialNumber": "166018",
  "DwellTime": 2.1e-06,
  "EchoTime": 0.035,
  "EchoTrainLength": 104,
  "EffectiveEchoSpacing": 0.000560011,
  "FlipAngle": 62,
  "ImageComments": "Unaliased_MB4_PE3_LB",
  "ImageOrientationPatientDICOM": [1, 0, 0, 0, 0.999998, -0.00174533],
  "ImageType": [
    "ORIGINAL",
    "PRIMARY",
    "M",
    "MB",
    "ND",
    "MOSAIC"
],
  "ImagingFrequency": 123.191,
  "InPlanePhaseEncodingDirectionDICOM": "COL",
  "InstitutionAddress": "Washington_Place_6_NYC_NYC_US_10003",
  "InstitutionName": "NYU_-_CBI",
  "InstitutionalDepartmentName": "Department",
  "MRAcquisitionType": "2D",
  "MagneticFieldStrength": 3,
  "Manufacturer": "Siemens",
  "ManufacturersModelName": "Prisma",
  "Modality": "MR",
  "MultibandAccelerationFactor": 4,
  "PartialFourier": 1,
  "PatientPosition": "HFS",
  "PercentPhaseFOV": 100,
  "PhaseEncodingDirection": "j-",
  "PhaseEncodingSteps": 104,
  "PhaseResolution": 1,
  "PixelBandwidth": 2290,
  "ProcedureStepDescription": "",
  "ProtocolName": "epi_MB4_2mm_motion",
  "PulseSequenceDetails": "%CustomerSeq%_cmrr_mbep2d_bold",
  "ReceiveCoilActiveElements": "HEA;HEP",
  "ReceiveCoilName": "Head_32",
  "ReconMatrixPE": 104,
  "RepetitionTime": 1.3,
  "SAR": 0.0753333,
  "ScanOptions": "FS",
  "ScanningSequence": "EP",
  "SequenceName": "epfid2d1_104",
  "SequenceVariant": "SK_SS",
  "SeriesDescription": "epi_MB4_2mm_motion",
  "SeriesNumber": 5,
  "ShimSetting": [269, -12694, -8380, 605, 45, -40, 64, 107],
  "SliceThickness": 2,
  "SliceTiming": [0, 0.56, 1.12, 0.4, 0.96, 0.24, 0.8, 0.08, 0.64, 1.2, 0.48, 1.04, 0.32, 0.88, 0.16, 0.72, 0, 0.56, 1.12, 0.4, 0.96, 0.24, 0.8, 0.08, 0.64, 1.2, 0.48, 1.04, 0.32, 0.88, 0.16, 0.72, 0, 0.56, 1.12, 0.4, 0.96, 0.24, 0.8, 0.08, 0.64, 1.2, 0.48, 1.04, 0.32, 0.88, 0.16, 0.72, 0, 0.56, 1.12, 0.4, 0.96, 0.24, 0.8, 0.08, 0.64, 1.2, 0.48, 1.04, 0.32, 0.88, 0.16, 0.72],
  "SoftwareVersions": "syngo_MR_E11",
  "SpacingBetweenSlices": 2,
  "StationName": "AWP166018",
  "TaskName": "TASK",
  "TotalReadoutTime": 0.0576811,
  "TxRefAmp": 217.678,
  "WipMemBlock": "cf98add1-edc8-4424-b831-44379d7414fb||Sequence: R016 ve11c/master r/8780670; Nov 27 2017 15:05:12 by eja",
  "dcmmeta_affine": [
    [-2.0, 0.0, 0.0, 104.0],
    [0.0, 1.9999969005584717, -0.003490656381472945, -97.285888671875],
    [0.0, 0.003490656614303589, 1.9999969005584717, -24.89449691772461],
    [0.0, 0.0, 0.0, 1.0]
],
  "dcmmeta_reorient_transform": [
    [0.0, -1.0, 0.0, 103.0],
    [1.0, 0.0, 0.0, 0.0],
    [0.0, 0.0, 1.0, 0.0],
    [0.0, 0.0, 0.0, 1.0]
],
  "dcmmeta_shape": [104, 104, 64, 324],
  "dcmmeta_slice_dim": 2,
  "dcmmeta_version": 0.6,
  "global": {
    "const": {
      "AccessionNumber": "jz02tjob",
      "AcquisitionMatrix": [104, 0, 0, 104],
      "AngioFlag": "N",
      "BitsAllocated": 16,
      "BitsStored": 16,
      "BodyPartExamined": "BRAIN",
      "Columns": 832,
      "EchoNumbers": 1,
      "EchoTime": 35.0,
      "EchoTrainLength": 104,
      "FlipAngle": 62.0,
      "HighBit": 15,
      "ImageOrientationPatient": [1.0, 0.0, 0.0, 0.0, 0.99999847691345, -0.0017453282742],
      "ImagePositionPatient": [-832.0, -836.71269010171, -23.264359501611],
      "ImageType": [
        "ORIGINAL",
        "PRIMARY",
        "M",
        "MB",
        "ND",
        "MOSAIC"
],
      "ImagedNucleus": "1H",
      "ImagingFrequency": 123.190754,
      "InPlanePhaseEncodingDirection": "COL",
      "MRAcquisitionType": "2D",
      "MagneticFieldStrength": 3.0,
      "Manufacturer": "SIEMENS",
      "ManufacturerModelName": "Prisma",
      "Modality": "MR",
      "NumberOfAverages": 1.0,
      "NumberOfPhaseEncodingSteps": 104,
      "PercentPhaseFieldOfView": 100.0,
      "PercentSampling": 100.0,
      "PerformedProcedureStepStartTime": "193054.814000",
      "PhotometricInterpretation": "MONOCHROME2",
      "PixelBandwidth": 2290.0,
      "PixelRepresentation": 0,
      "PixelSpacing": [2.0, 2.0],
      "ProtocolName": "epi_MB4_2mm_motion",
      "RepetitionTime": 1300.0,
      "Rows": 832,
      "SAR": 0.07533332228478,
      "SamplesPerPixel": 1,
      "ScanOptions": "FS",
      "ScanningSequence": "EP",
      "SequenceName": "epfid2d1_104",
      "SequenceVariant": [
        "SK",
        "SS"
],
      "SeriesDescription": "epi_MB4_2mm_motion",
      "SeriesNumber": 5,
      "SeriesTime": "200200.222000",
      "SliceLocation": -24.724662383381,
      "SliceThickness": 2.0,
      "SmallestImagePixelValue": 0,
      "SoftwareVersions": "syngo MR E11",
      "SpacingBetweenSlices": 1.9999999580908,
      "SpecificCharacterSet": "ISO_IR 100",
      "StudyID": "1",
      "StudyTime": "193054.685000",
      "TransmitCoilName": "Body",
      "VariableFlipAngleFlag": "N",
      "WindowCenterWidthExplanation": "Algo1",
      "dBdt": 0.0},
    "slices": {}
  },
  "time": {
    "samples": {
      "AcquisitionNumber": [1, 2, 3, 4, 5, 6, 7, 8, 9, 10, 11, 12, 13, 14, 15, 16, 17, 18, 19, 20, 21, 22, 23, 24, 25, 26, 27, 28, 29, 30, 31, 32, 33, 34, 35, 36, 37, 38, 39, 40, 41, 42, 43, 44, 45, 46, 47, 48, 49, 50, 51, 52, 53, 54, 55, 56, 57, 58, 59, 60, 61, 62, 63, 64, 65, 66, 67, 68, 69, 70, 71, 72, 73, 74, 75, 76, 77, 78, 79, 80, 81, 82, 83, 84, 85, 86, 87, 88, 89, 90, 91, 92, 93, 94, 95, 96, 97, 98, 99, 100, 101, 102, 103, 104, 105, 106, 107, 108, 109, 110, 111, 112, 113, 114, 115, 116, 117, 118, 119, 120, 121, 122, 123, 124, 125, 126, 127, 128, 129, 130, 131, 132, 133, 134, 135, 136, 137, 138, 139, 140, 141, 142, 143, 144, 145, 146, 147, 148, 149, 150, 151, 152, 153, 154, 155, 156, 157, 158, 159, 160, 161, 162, 163, 164, 165, 166, 167, 168, 169, 170, 171, 172, 173, 174, 175, 176, 177, 178, 179, 180, 181, 182, 183, 184, 185, 186, 187, 188, 189, 190, 191, 192, 193, 194, 195, 196, 197, 198, 199, 200, 201, 202, 203, 204, 205, 206, 207, 208, 209, 210, 211, 212, 213, 214, 215, 216, 217, 218, 219, 220, 221, 222, 223, 224, 225, 226, 227, 228, 229, 230, 231, 232, 233, 234, 235, 236, 237, 238, 239, 240, 241, 242, 243, 244, 245, 246, 247, 248, 249, 250, 251, 252, 253, 254, 255, 256, 257, 258, 259, 260, 261, 262, 263, 264, 265, 266, 267, 268, 269, 270, 271, 272, 273, 274, 275, 276, 277, 278, 279, 280, 281, 282, 283, 284, 285, 286, 287, 288, 289, 290, 291, 292, 293, 294, 295, 296, 297, 298, 299, 300, 301, 302, 303, 304, 305, 306, 307, 308, 309, 310, 311, 312, 313, 314, 315, 316, 317, 318, 319, 320, 321, 322, 323, 324],
      "AcquisitionTime": ["200121.355000", "200122.655000", "200123.955000", "200125.255000", "200126.555000", "200127.855000", "200129.155000", "200130.455000", "200131.755000", "200133.055000", "200134.355000", "200135.655000", "200136.955000", "200138.255000", "200139.555000", "200140.855000", "200142.155000", "200143.455000", "200144.755000", "200146.055000", "200147.355000", "200148.655000", "200149.955000", "200151.255000", "200152.555000", "200153.855000", "200155.155000", "200156.455000", "200157.755000", "200159.055000", "200200.355000", "200201.655000", "200202.955000", "200204.255000", "200205.555000", "200206.855000", "200208.155000", "200209.455000", "200210.755000", "200212.055000", "200213.355000", "200214.655000", "200215.955000", "200217.255000", "200218.555000", "200219.855000", "200221.155000", "200222.455000", "200223.755000", "200225.055000", "200226.355000", "200227.655000", "200228.955000", "200230.255000", "200231.555000", "200232.855000", "200234.155000", "200235.455000", "200236.755000", "200238.055000", "200239.355000", "200240.655000", "200241.955000", "200243.255000", "200244.555000", "200245.855000", "200247.155000", "200248.455000", "200249.755000", "200251.055000", "200252.355000", "200253.655000", "200254.955000", "200256.255000", "200257.555000", "200258.855000", "200300.155000", "200301.455000", "200302.755000", "200304.055000", "200305.355000", "200306.655000", "200307.955000", "200309.255000", "200310.555000", "200311.855000", "200313.155000", "200314.455000", "200315.755000", "200317.055000", "200318.355000", "200319.655000", "200320.955000", "200322.255000", "200323.555000", "200324.855000", "200326.155000", "200327.455000", "200328.755000", "200330.055000", "200331.355000", "200332.655000", "200333.955000", "200335.255000", "200336.555000", "200337.855000", "200339.155000", "200340.455000", "200341.755000", "200343.055000", "200344.355000", "200345.655000", "200346.955000", "200348.255000", "200349.555000", "200350.855000", "200352.155000", "200353.455000", "200354.755000", "200356.055000", "200357.355000", "200358.655000", "200359.955000", "200401.255000", "200402.555000", "200403.855000", "200405.155000", "200406.455000", "200407.755000", "200409.055000", "200410.355000", "200411.655000", "200412.955000", "200414.255000", "200415.555000", "200416.855000", "200418.155000", "200419.455000", "200420.755000", "200422.055000", "200423.355000", "200424.655000", "200425.955000", "200427.255000", "200428.555000", "200429.855000", "200431.155000", "200432.455000", "200433.755000", "200435.055000", "200436.355000", "200437.655000", "200438.955000", "200440.255000", "200441.555000", "200442.855000", "200444.155000", "200445.455000", "200446.755000", "200448.055000", "200449.355000", "200450.655000", "200451.955000", "200453.255000", "200454.555000", "200455.855000", "200457.155000", "200458.455000", "200459.755000", "200501.055000", "200502.355000", "200503.655000", "200504.955000", "200506.255000", "200507.555000", "200508.855000", "200510.155000", "200511.455000", "200512.755000", "200514.055000", "200515.355000", "200516.655000", "200517.955000", "200519.255000", "200520.555000", "200521.855000", "200523.155000", "200524.455000", "200525.755000", "200527.055000", "200528.355000", "200529.655000", "200530.955000", "200532.255000", "200533.555000", "200534.855000", "200536.155000", "200537.455000", "200538.755000", "200540.055000", "200541.355000", "200542.655000", "200543.955000", "200545.255000", "200546.555000", "200547.855000", "200549.155000", "200550.455000", "200551.755000", "200553.055000", "200554.355000", "200555.655000", "200556.955000", "200558.255000", "200559.555000", "200600.855000", "200602.155000", "200603.455000", "200604.755000", "200606.055000", "200607.355000", "200608.655000", "200609.955000", "200611.255000", "200612.555000", "200613.855000", "200615.155000", "200616.455000", "200617.755000", "200619.055000", "200620.355000", "200621.655000", "200622.955000", "200624.255000", "200625.555000", "200626.855000", "200628.155000", "200629.455000", "200630.755000", "200632.055000", "200633.355000", "200634.655000", "200635.955000", "200637.255000", "200638.555000", "200639.855000", "200641.155000", "200642.455000", "200643.755000", "200645.055000", "200646.355000", "200647.655000", "200648.955000", "200650.255000", "200651.555000", "200652.855000", "200654.155000", "200655.455000", "200656.755000", "200658.055000", "200659.355000", "200700.655000", "200701.955000", "200703.255000", "200704.555000", "200705.855000", "200707.155000", "200708.455000", "200709.755000", "200711.055000", "200712.355000", "200713.655000", "200714.955000", "200716.255000", "200717.555000", "200718.855000", "200720.155000", "200721.455000", "200722.755000", "200724.055000", "200725.355000", "200726.655000", "200727.955000", "200729.255000", "200730.555000", "200731.855000", "200733.155000", "200734.455000", "200735.755000", "200737.055000", "200738.355000", "200739.655000", "200740.955000", "200742.255000", "200743.555000", "200744.855000", "200746.155000", "200747.455000", "200748.755000", "200750.055000", "200751.355000", "200752.655000", "200753.955000", "200755.255000", "200756.555000", "200757.855000", "200759.155000", "200800.455000", "200801.755000", "200803.055000", "200804.355000", "200805.655000", "200806.955000", "200808.255000", "200809.555000", "200810.855000", "200812.155000", "200813.455000", "200814.755000", "200816.055000", "200817.355000", "200818.655000", "200819.955000", "200821.255000"],
      "ContentTime": ["200200.225000", "200200.228000", "200200.231000", "200200.234000", "200200.237000", "200200.240000", "200200.243000", "200200.246000", "200200.249000", "200200.252000", "200200.255000", "200200.258000", "200200.261000", "200200.264000", "200200.267000", "200200.270000", "200200.273000", "200200.276000", "200200.279000", "200200.282000", "200200.285000", "200200.288000", "200200.291000", "200200.293000", "200200.296000", "200200.299000", "200200.302000", "200200.305000", "200200.308000", "200240.199000", "200240.202000", "200240.205000", "200240.208000", "200240.211000", "200240.214000", "200240.217000", "200240.220000", "200240.223000", "200240.226000", "200240.229000", "200240.231000", "200240.240000", "200240.243000", "200240.246000", "200240.248000", "200240.251000", "200240.254000", "200240.257000", "200240.260000", "200240.263000", "200240.266000", "200240.269000", "200240.272000", "200240.275000", "200240.278000", "200240.281000", "200240.284000", "200240.287000", "200240.290000", "200240.298000", "200320.199000", "200320.202000", "200320.205000", "200320.208000", "200320.211000", "200320.214000", "200320.217000", "200320.220000", "200320.223000", "200320.226000", "200320.229000", "200320.232000", "200320.234000", "200320.237000", "200320.241000", "200320.244000", "200320.248000", "200320.252000", "200320.257000", "200320.260000", "200320.263000", "200320.266000", "200320.296000", "200320.298000", "200320.302000", "200320.304000", "200320.307000", "200320.310000", "200320.313000", "200320.316000", "200400.199000", "200400.202000", "200400.205000", "200400.208000", "200400.211000", "200400.214000", "200400.217000", "200400.220000", "200400.223000", "200400.225000", "200400.229000", "200400.231000", "200400.234000", "200400.237000", "200400.240000", "200400.244000", "200400.247000", "200400.250000", "200400.262000", "200400.265000", "200400.268000", "200400.271000", "200400.274000", "200400.277000", "200400.280000", "200400.283000", "200400.286000", "200400.289000", "200400.292000", "200400.294000", "200400.297000", "200440.199000", "200440.202000", "200440.205000", "200440.208000", "200440.211000", "200440.214000", "200440.217000", "200440.220000", "200440.223000", "200440.226000", "200440.229000", "200440.232000", "200440.234000", "200440.238000", "200440.241000", "200440.244000", "200440.246000", "200440.249000", "200440.252000", "200440.255000", "200440.258000", "200440.261000", "200440.264000", "200440.267000", "200440.270000", "200440.273000", "200440.276000", "200440.279000", "200440.282000", "200440.285000", "200440.288000", "200520.199000", "200520.202000", "200520.205000", "200520.208000", "200520.211000", "200520.214000", "200520.217000", "200520.220000", "200520.233000", "200520.236000", "200520.238000", "200520.241000", "200520.244000", "200520.247000", "200520.250000", "200520.253000", "200520.256000", "200520.259000", "200520.262000", "200520.265000", "200520.268000", "200520.271000", "200520.274000", "200520.277000", "200520.280000", "200520.283000", "200520.286000", "200520.289000", "200520.292000", "200520.295000", "200520.298000", "200600.199000", "200600.202000", "200600.205000", "200600.208000", "200600.211000", "200600.214000", "200600.217000", "200600.220000", "200600.222000", "200600.225000", "200600.228000", "200600.231000", "200600.234000", "200600.237000", "200600.240000", "200600.243000", "200600.246000", "200600.249000", "200600.252000", "200600.255000", "200600.258000", "200600.261000", "200600.264000", "200600.267000", "200600.270000", "200600.273000", "200600.276000", "200600.279000", "200600.282000", "200600.284000", "200600.287000", "200640.199000", "200640.202000", "200640.205000", "200640.208000", "200640.211000", "200640.214000", "200640.217000", "200640.220000", "200640.223000", "200640.226000", "200640.229000", "200640.232000", "200640.235000", "200640.238000", "200640.240000", "200640.243000", "200640.246000", "200640.249000", "200640.252000", "200640.255000", "200640.258000", "200640.261000", "200640.264000", "200640.267000", "200640.270000", "200640.273000", "200640.276000", "200640.279000", "200640.282000", "200640.285000", "200720.199000", "200720.202000", "200720.205000", "200720.208000", "200720.211000", "200720.214000", "200720.217000", "200720.220000", "200720.223000", "200720.226000", "200720.229000", "200720.232000", "200720.235000", "200720.238000", "200720.240000", "200720.243000", "200720.247000", "200720.249000", "200720.252000", "200720.255000", "200720.258000", "200720.261000", "200720.264000", "200720.267000", "200720.270000", "200720.273000", "200720.276000", "200720.279000", "200720.282000", "200720.285000", "200720.288000", "200800.199000", "200800.224000", "200800.227000", "200800.230000", "200800.233000", "200800.236000", "200800.239000", "200800.242000", "200800.245000", "200800.248000", "200800.251000", "200800.254000", "200800.257000", "200800.260000", "200800.262000", "200800.266000", "200800.269000", "200800.271000", "200800.274000", "200800.277000", "200800.280000", "200800.283000", "200800.286000", "200800.289000", "200800.292000", "200800.295000", "200800.298000", "200800.301000", "200800.304000", "200800.307000", "200800.310000", "200823.214000", "200823.218000", "200823.221000", "200823.224000", "200823.227000", "200823.230000", "200823.233000", "200823.236000", "200823.239000", "200823.242000", "200823.245000", "200823.248000", "200823.251000", "200823.253000", "200823.256000", "200823.259000", "200823.262000", "200823.265000"],
      "InstanceCreationTime": ["200200.225000", "200200.228000", "200200.231000", "200200.234000", "200200.237000", "200200.240000", "200200.243000", "200200.246000", "200200.249000", "200200.252000", "200200.255000", "200200.258000", "200200.261000", "200200.264000", "200200.267000", "200200.270000", "200200.273000", "200200.276000", "200200.279000", "200200.282000", "200200.285000", "200200.288000", "200200.291000", "200200.293000", "200200.296000", "200200.299000", "200200.302000", "200200.305000", "200200.308000", "200240.199000", "200240.202000", "200240.205000", "200240.208000", "200240.211000", "200240.214000", "200240.217000", "200240.220000", "200240.223000", "200240.226000", "200240.229000", "200240.231000", "200240.240000", "200240.243000", "200240.246000", "200240.248000", "200240.251000", "200240.254000", "200240.257000", "200240.260000", "200240.263000", "200240.266000", "200240.269000", "200240.272000", "200240.275000", "200240.278000", "200240.281000", "200240.284000", "200240.287000", "200240.290000", "200240.298000", "200320.199000", "200320.202000", "200320.205000", "200320.208000", "200320.211000", "200320.214000", "200320.217000", "200320.220000", "200320.223000", "200320.226000", "200320.229000", "200320.232000", "200320.234000", "200320.237000", "200320.241000", "200320.244000", "200320.248000", "200320.252000", "200320.257000", "200320.260000", "200320.263000", "200320.266000", "200320.296000", "200320.298000", "200320.302000", "200320.304000", "200320.307000", "200320.310000", "200320.313000", "200320.316000", "200400.199000", "200400.202000", "200400.205000", "200400.208000", "200400.211000", "200400.214000", "200400.217000", "200400.220000", "200400.223000", "200400.225000", "200400.229000", "200400.231000", "200400.234000", "200400.237000", "200400.240000", "200400.244000", "200400.247000", "200400.250000", "200400.262000", "200400.265000", "200400.268000", "200400.271000", "200400.274000", "200400.277000", "200400.280000", "200400.283000", "200400.286000", "200400.289000", "200400.292000", "200400.294000", "200400.297000", "200440.199000", "200440.202000", "200440.205000", "200440.208000", "200440.211000", "200440.214000", "200440.217000", "200440.220000", "200440.223000", "200440.226000", "200440.229000", "200440.232000", "200440.234000", "200440.238000", "200440.241000", "200440.244000", "200440.246000", "200440.249000", "200440.252000", "200440.255000", "200440.258000", "200440.261000", "200440.264000", "200440.267000", "200440.270000", "200440.273000", "200440.276000", "200440.279000", "200440.282000", "200440.285000", "200440.288000", "200520.199000", "200520.202000", "200520.205000", "200520.208000", "200520.211000", "200520.214000", "200520.217000", "200520.220000", "200520.233000", "200520.236000", "200520.238000", "200520.241000", "200520.244000", "200520.247000", "200520.250000", "200520.253000", "200520.256000", "200520.259000", "200520.262000", "200520.265000", "200520.268000", "200520.271000", "200520.274000", "200520.277000", "200520.280000", "200520.283000", "200520.286000", "200520.289000", "200520.292000", "200520.295000", "200520.298000", "200600.199000", "200600.202000", "200600.205000", "200600.208000", "200600.211000", "200600.214000", "200600.217000", "200600.220000", "200600.222000", "200600.225000", "200600.228000", "200600.231000", "200600.234000", "200600.237000", "200600.240000", "200600.243000", "200600.246000", "200600.249000", "200600.252000", "200600.255000", "200600.258000", "200600.261000", "200600.264000", "200600.267000", "200600.270000", "200600.273000", "200600.276000", "200600.279000", "200600.282000", "200600.284000", "200600.287000", "200640.199000", "200640.202000", "200640.205000", "200640.208000", "200640.211000", "200640.214000", "200640.217000", "200640.220000", "200640.223000", "200640.226000", "200640.229000", "200640.232000", "200640.235000", "200640.238000", "200640.240000", "200640.243000", "200640.246000", "200640.249000", "200640.252000", "200640.255000", "200640.258000", "200640.261000", "200640.264000", "200640.267000", "200640.270000", "200640.273000", "200640.276000", "200640.279000", "200640.282000", "200640.285000", "200720.199000", "200720.202000", "200720.205000", "200720.208000", "200720.211000", "200720.214000", "200720.217000", "200720.220000", "200720.223000", "200720.226000", "200720.229000", "200720.232000", "200720.235000", "200720.238000", "200720.240000", "200720.243000", "200720.247000", "200720.249000", "200720.252000", "200720.255000", "200720.258000", "200720.261000", "200720.264000", "200720.267000", "200720.270000", "200720.273000", "200720.276000", "200720.279000", "200720.282000", "200720.285000", "200720.288000", "200800.199000", "200800.224000", "200800.227000", "200800.230000", "200800.233000", "200800.236000", "200800.239000", "200800.242000", "200800.245000", "200800.248000", "200800.251000", "200800.254000", "200800.257000", "200800.260000", "200800.262000", "200800.266000", "200800.269000", "200800.271000", "200800.274000", "200800.277000", "200800.280000", "200800.283000", "200800.286000", "200800.289000", "200800.292000", "200800.295000", "200800.298000", "200800.301000", "200800.304000", "200800.307000", "200800.310000", "200823.214000", "200823.218000", "200823.221000", "200823.224000", "200823.227000", "200823.230000", "200823.233000", "200823.236000", "200823.239000", "200823.242000", "200823.245000", "200823.248000", "200823.251000", "200823.253000", "200823.256000", "200823.259000", "200823.262000", "200823.265000"],
      "InstanceNumber": [1, 2, 3, 4, 5, 6, 7, 8, 9, 10, 11, 12, 13, 14, 15, 16, 17, 18, 19, 20, 21, 22, 23, 24, 25, 26, 27, 28, 29, 30, 31, 32, 33, 34, 35, 36, 37, 38, 39, 40, 41, 42, 43, 44, 45, 46, 47, 48, 49, 50, 51, 52, 53, 54, 55, 56, 57, 58, 59, 60, 61, 62, 63, 64, 65, 66, 67, 68, 69, 70, 71, 72, 73, 74, 75, 76, 77, 78, 79, 80, 81, 82, 83, 84, 85, 86, 87, 88, 89, 90, 91, 92, 93, 94, 95, 96, 97, 98, 99, 100, 101, 102, 103, 104, 105, 106, 107, 108, 109, 110, 111, 112, 113, 114, 115, 116, 117, 118, 119, 120, 121, 122, 123, 124, 125, 126, 127, 128, 129, 130, 131, 132, 133, 134, 135, 136, 137, 138, 139, 140, 141, 142, 143, 144, 145, 146, 147, 148, 149, 150, 151, 152, 153, 154, 155, 156, 157, 158, 159, 160, 161, 162, 163, 164, 165, 166, 167, 168, 169, 170, 171, 172, 173, 174, 175, 176, 177, 178, 179, 180, 181, 182, 183, 184, 185, 186, 187, 188, 189, 190, 191, 192, 193, 194, 195, 196, 197, 198, 199, 200, 201, 202, 203, 204, 205, 206, 207, 208, 209, 210, 211, 212, 213, 214, 215, 216, 217, 218, 219, 220, 221, 222, 223, 224, 225, 226, 227, 228, 229, 230, 231, 232, 233, 234, 235, 236, 237, 238, 239, 240, 241, 242, 243, 244, 245, 246, 247, 248, 249, 250, 251, 252, 253, 254, 255, 256, 257, 258, 259, 260, 261, 262, 263, 264, 265, 266, 267, 268, 269, 270, 271, 272, 273, 274, 275, 276, 277, 278, 279, 280, 281, 282, 283, 284, 285, 286, 287, 288, 289, 290, 291, 292, 293, 294, 295, 296, 297, 298, 299, 300, 301, 302, 303, 304, 305, 306, 307, 308, 309, 310, 311, 312, 313, 314, 315, 316, 317, 318, 319, 320, 321, 322, 323, 324],
      "LargestImagePixelValue": [27575, 26911, 26621, 26417, 26384, 26147, 26090, 26146, 25874, 25877, 25856, 26055, 26049, 25954, 26023, 25928, 25920, 26030, 26306, 26286, 26170, 26030, 26089, 25807, 25915, 25869, 25564, 25903, 25842, 25679, 25680, 25947, 25823, 25784, 25990, 25866, 25851, 25906, 25813, 25650, 25864, 26152, 25932, 25607, 25569, 26392, 25428, 25240, 25563, 25838, 26033, 25645, 25100, 25196, 24995, 25234, 26463, 25065, 25779, 25450, 25540, 26217, 26007, 25541, 25444, 25830, 25823, 25960, 26019, 26129, 26001, 25910, 26293, 26198, 26193, 26188, 25942, 25814, 25940, 25974, 25920, 25881, 26019, 26109, 26074, 26127, 23550, 24306, 23897, 23937, 23981, 22989, 26287, 26037, 26326, 26052, 26053, 26124, 25098, 26523, 24023, 23601, 23782, 24132, 28482, 26318, 25966, 25946, 26162, 27480, 25911, 25572, 24928, 24875, 24719, 25282, 25942, 26121, 26062, 26217, 25900, 25625, 25716, 25443, 25086, 25259, 25625, 25760, 25804, 25990, 25848, 25749, 25628, 25515, 25478, 25566, 24827, 25033, 25200, 25480, 25911, 25754, 25853, 25732, 25344, 25158, 25161, 24340, 23205, 25003, 24761, 25007, 24818, 24542, 24059, 25471, 25435, 25033, 25094, 23144, 24990, 24544, 24043, 24009, 24251, 24719, 24413, 24537, 24512, 24567, 24372, 24504, 24576, 24138, 24067, 24100, 24151, 24295, 24588, 24660, 24325, 24519, 24624, 24268, 25281, 25591, 24965, 24533, 25249, 25471, 25230, 25001, 23866, 25506, 26499, 25239, 25008, 25016, 25033, 26157, 25916, 25545, 25345, 25233, 24897, 25687, 25679, 25663, 25591, 25945, 25641, 25955, 25987, 26125, 26069, 25868, 25895, 25740, 25748, 25814, 25789, 25930, 25756, 25839, 25997, 26184, 25989, 25858, 25592, 24590, 24519, 24235, 24415, 24544, 24165, 27223, 25552, 26502, 26876, 26550, 27221, 25035, 24068, 23562, 23803, 23863, 24038, 27190, 25935, 26575, 26774, 26419, 25302, 25044, 24110, 24450, 25167, 25322, 25648, 25815, 25741, 25931, 25866, 25968, 25560, 25531, 25149, 25536, 25583, 25514, 25921, 25973, 25983, 25880, 25975, 25606, 25694, 25684, 24652, 24625, 24507, 24982, 25048, 24347, 24848, 25506, 25375, 25149, 25320, 25060, 23942, 24931, 26465, 25115, 25297, 25556, 25794, 24801, 25441, 25195, 24814, 24697, 24061, 24203, 24419, 24414, 24369, 24352, 24099, 24236, 24206, 23935, 24181, 23932, 24147, 24345, 24496, 24193, 24321, 24391, 24394, 24277, 24434, 24304],
      "WindowCenter": [6999.0, 6963.0, 6950.0, 6946.0, 6948.0, 6939.0, 6937.0, 6935.0, 6929.0, 6928.0, 6937.0, 6947.0, 6941.0, 6930.0, 6928.0, 6938.0, 6929.0, 6948.0, 6972.0, 6973.0, 6963.0, 6952.0, 6950.0, 6942.0, 6951.0, 6953.0, 6942.0, 6937.0, 6929.0, 6919.0, 6918.0, 6936.0, 6949.0, 6950.0, 6941.0, 6940.0, 6930.0, 6928.0, 6928.0, 6927.0, 6928.0, 6935.0, 6919.0, 6930.0, 6940.0, 6920.0, 6913.0, 6901.0, 6910.0, 6910.0, 6872.0, 6887.0, 6888.0, 6901.0, 6890.0, 6887.0, 6904.0, 6889.0, 6905.0, 6905.0, 6906.0, 6879.0, 6913.0, 6914.0, 6925.0, 6924.0, 6914.0, 6926.0, 6937.0, 6926.0, 6905.0, 6905.0, 6912.0, 6911.0, 6912.0, 6914.0, 6904.0, 6892.0, 6900.0, 6902.0, 6902.0, 6903.0, 6903.0, 6902.0, 6903.0, 6913.0, 6650.0, 6872.0, 6861.0, 6873.0, 6874.0, 6800.0, 6764.0, 6971.0, 6977.0, 6954.0, 6941.0, 6861.0, 6654.0, 6925.0, 6854.0, 6847.0, 6849.0, 6800.0, 6943.0, 6986.0, 6962.0, 6938.0, 6921.0, 6775.0, 6807.0, 6746.0, 6940.0, 6956.0, 6972.0, 6960.0, 6953.0, 6928.0, 6906.0, 6900.0, 6912.0, 6904.0, 6915.0, 6925.0, 6909.0, 6897.0, 6906.0, 6925.0, 6927.0, 6925.0, 6925.0, 6914.0, 6895.0, 6902.0, 6904.0, 6809.0, 6919.0, 6917.0, 6927.0, 6926.0, 6831.0, 6776.0, 6919.0, 6882.0, 6879.0, 6890.0, 6881.0, 6853.0, 6627.0, 6849.0, 6885.0, 6884.0, 6905.0, 6909.0, 6713.0, 6815.0, 6899.0, 6862.0, 6848.0, 6766.0, 6826.0, 6871.0, 6865.0, 6867.0, 6885.0, 6896.0, 6878.0, 6875.0, 6874.0, 6874.0, 6864.0, 6869.0, 6882.0, 6865.0, 6866.0, 6876.0, 6867.0, 6875.0, 6882.0, 6894.0, 6876.0, 6885.0, 6895.0, 6875.0, 6812.0, 6904.0, 6883.0, 6862.0, 6695.0, 6920.0, 6898.0, 6897.0, 6800.0, 6825.0, 6899.0, 6880.0, 6863.0, 6863.0, 6824.0, 6799.0, 6885.0, 6861.0, 6871.0, 6874.0, 6806.0, 6892.0, 6887.0, 6887.0, 6889.0, 6901.0, 6906.0, 6915.0, 6903.0, 6901.0, 6890.0, 6887.0, 6887.0, 6881.0, 6892.0, 6912.0, 6914.0, 6913.0, 6895.0, 6892.0, 6900.0, 6912.0, 6923.0, 6925.0, 6894.0, 6724.0, 6887.0, 6865.0, 6865.0, 6874.0, 6764.0, 6879.0, 6963.0, 6953.0, 6938.0, 6916.0, 6785.0, 6822.0, 6853.0, 6858.0, 6860.0, 6879.0, 6780.0, 6846.0, 6950.0, 6932.0, 6926.0, 6896.0, 6643.0, 6824.0, 6762.0, 6886.0, 6903.0, 6915.0, 6904.0, 6902.0, 6914.0, 6934.0, 6913.0, 6889.0, 6887.0, 6887.0, 6881.0, 6901.0, 6904.0, 6905.0, 6903.0, 6910.0, 6912.0, 6912.0, 6910.0, 6901.0, 6900.0, 6877.0, 6851.0, 6886.0, 6896.0, 6906.0, 6907.0, 6734.0, 6823.0, 6905.0, 6884.0, 6874.0, 6880.0, 6872.0, 6833.0, 6660.0, 6920.0, 6894.0, 6904.0, 6902.0, 6890.0, 6663.0, 6919.0, 6874.0, 6872.0, 6864.0, 6843.0, 6865.0, 6851.0, 6853.0, 6873.0, 6875.0, 6877.0, 6887.0, 6890.0, 6880.0, 6876.0, 6858.0, 6856.0, 6865.0, 6875.0, 6865.0, 6875.0, 6876.0, 6865.0, 6854.0, 6854.0, 6853.0],
