{
  "AcquisitionMatrixPE": 104,
  "AcquisitionNumber": 1,
  "AcquisitionTime": "20:50:39.650000",
  "BandwidthPerPixelPhaseEncode": 17.17,
  "BaseResolution": 104,
  "BodyPartExamined": "BRAIN",
  "ConsistencyInfo": "N4_VE11C_LATEST_20160120",
  "ConversionSoftware": "dcm2niix",
  "ConversionSoftwareVersion": "v1.0.20190410  GCC6.3.0",
  "DerivedVendorReportedEchoSpacing": 0.000560011,
  "DeviceSerialNumber": "166018",
  "DwellTime": 2.1e-06,
  "EchoTime": 0.035,
  "EchoTrainLength": 104,
  "EffectiveEchoSpacing": 0.000560011,
  "FlipAngle": 62,
  "ImageComments": "Unaliased_MB4_PE3_LB",
  "ImageOrientationPatientDICOM": [1, 0, 0, 0, 0.999994, -0.00349065],
  "ImageType": [
    "ORIGINAL",
    "PRIMARY",
    "M",
    "MB",
    "ND",
    "MOSAIC"
],
  "ImagingFrequency": 123.191,
  "InPlanePhaseEncodingDirectionDICOM": "COL",
  "InstitutionAddress": "Washington_Place_6_NYC_NYC_US_10003",
  "InstitutionName": "NYU_-_CBI",
  "InstitutionalDepartmentName": "Department",
  "MRAcquisitionType": "2D",
  "MagneticFieldStrength": 3,
  "Manufacturer": "Siemens",
  "ManufacturersModelName": "Prisma",
  "Modality": "MR",
  "MultibandAccelerationFactor": 4,
  "PartialFourier": 1,
  "PatientPosition": "HFS",
  "PercentPhaseFOV": 100,
  "PhaseEncodingDirection": "j-",
  "PhaseEncodingSteps": 104,
  "PhaseResolution": 1,
  "PixelBandwidth": 2290,
  "ProcedureStepDescription": "",
  "ProtocolName": "epi_MB4_2mm_motion",
  "PulseSequenceDetails": "%CustomerSeq%_cmrr_mbep2d_bold",
  "ReceiveCoilActiveElements": "HEA;HEP",
  "ReceiveCoilName": "Head_32",
  "ReconMatrixPE": 104,
  "RepetitionTime": 1.3,
  "SAR": 0.087817,
  "ScanOptions": "FS",
  "ScanningSequence": "EP",
  "SequenceName": "epfid2d1_104",
  "SequenceVariant": "SK_SS",
  "SeriesDescription": "epi_MB4_2mm_motion",
  "SeriesNumber": 5,
  "ShimSetting": [271, -12674, -8437, 360, 48, -111, 54, 26],
  "SliceThickness": 2,
  "SliceTiming": [0, 0.5575, 1.1175, 0.3975, 0.9575, 0.2375, 0.7975, 0.0775, 0.6375, 1.1975, 0.4775, 1.0375, 0.3175, 0.8775, 0.1575, 0.7175, 0, 0.5575, 1.1175, 0.3975, 0.9575, 0.2375, 0.7975, 0.0775, 0.6375, 1.1975, 0.4775, 1.0375, 0.3175, 0.8775, 0.1575, 0.7175, 0, 0.5575, 1.1175, 0.3975, 0.9575, 0.2375, 0.7975, 0.0775, 0.6375, 1.1975, 0.4775, 1.0375, 0.3175, 0.8775, 0.1575, 0.7175, 0, 0.5575, 1.1175, 0.3975, 0.9575, 0.2375, 0.7975, 0.0775, 0.6375, 1.1975, 0.4775, 1.0375, 0.3175, 0.8775, 0.1575, 0.7175],
  "SoftwareVersions": "syngo_MR_E11",
  "SpacingBetweenSlices": 2,
  "StationName": "AWP166018",
  "TaskName": "TASK",
  "TotalReadoutTime": 0.0576811,
  "TxRefAmp": 244.497,
  "WipMemBlock": "cedd8c32-fdeb-4a80-922c-c35304df2c42||Sequence: R016 ve11c/master r/8780670; Nov 27 2017 15:05:12 by eja",
  "dcmmeta_affine": [
    [-2.0, 0.0, 0.0, 104.0],
    [0.0, 1.9999878406524658, -0.006981302984058857, -91.00679016113281],
    [0.0, 0.006981302984058857, 1.9999878406524658, -43.57825469970703],
    [0.0, 0.0, 0.0, 1.0]
],
  "dcmmeta_reorient_transform": [
    [0.0, -1.0, 0.0, 103.0],
    [1.0, 0.0, 0.0, 0.0],
    [0.0, 0.0, 1.0, 0.0],
    [0.0, 0.0, 0.0, 1.0]
],
  "dcmmeta_shape": [104, 104, 64, 324],
  "dcmmeta_slice_dim": 2,
  "dcmmeta_version": 0.6,
  "global": {
    "const": {
      "AccessionNumber": "jyuddf4p",
      "AcquisitionMatrix": [104, 0, 0, 104],
      "AngioFlag": "N",
      "BitsAllocated": 16,
      "BitsStored": 16,
      "BodyPartExamined": "BRAIN",
      "Columns": 832,
      "EchoNumbers": 1,
      "EchoTime": 35.0,
      "EchoTrainLength": 104,
      "FlipAngle": 62.0,
      "HighBit": 15,
      "ImageOrientationPatient": [1.0, 0.0, 0.0, 0.0, 0.99999390765793, -0.0034906513758],
      "ImagePositionPatient": [-832.0, -842.98751826094, -40.317987985764],
      "ImageType": [
        "ORIGINAL",
        "PRIMARY",
        "M",
        "MB",
        "ND",
        "MOSAIC"
],
      "ImagedNucleus": "1H",
      "ImagingFrequency": 123.191081,
      "InPlanePhaseEncodingDirection": "COL",
      "MRAcquisitionType": "2D",
      "MagneticFieldStrength": 3.0,
      "Manufacturer": "SIEMENS",
      "ManufacturerModelName": "Prisma",
      "Modality": "MR",
      "NumberOfAverages": 1.0,
      "NumberOfPhaseEncodingSteps": 104,
      "PercentPhaseFieldOfView": 100.0,
      "PercentSampling": 100.0,
      "PerformedProcedureStepStartTime": "201821.920000",
      "PhotometricInterpretation": "MONOCHROME2",
      "PixelBandwidth": 2290.0,
      "PixelRepresentation": 0,
      "PixelSpacing": [2.0, 2.0],
      "ProtocolName": "epi_MB4_2mm_motion",
      "RepetitionTime": 1300.0,
      "Rows": 832,
      "SAR": 0.08781698133337,
      "SamplesPerPixel": 1,
      "ScanOptions": "FS",
      "ScanningSequence": "EP",
      "SequenceName": "epfid2d1_104",
      "SequenceVariant": [
        "SK",
        "SS"
],
      "SeriesDescription": "epi_MB4_2mm_motion",
      "SeriesNumber": 5,
      "SeriesTime": "205114.810000",
      "SliceLocation": -43.260317895179,
      "SliceThickness": 2.0,
      "SmallestImagePixelValue": 0,
      "SoftwareVersions": "syngo MR E11",
      "SpacingBetweenSlices": 2.0000000139901,
      "SpecificCharacterSet": "ISO_IR 100",
      "StudyID": "1",
      "StudyTime": "201821.797000",
      "TransmitCoilName": "Body",
      "VariableFlipAngleFlag": "N",
      "WindowCenterWidthExplanation": "Algo1",
      "dBdt": 0.0},
    "slices": {}
  },
  "time": {
    "samples": {
      "AcquisitionNumber": [1, 2, 3, 4, 5, 6, 7, 8, 9, 10, 11, 12, 13, 14, 15, 16, 17, 18, 19, 20, 21, 22, 23, 24, 25, 26, 27, 28, 29, 30, 31, 32, 33, 34, 35, 36, 37, 38, 39, 40, 41, 42, 43, 44, 45, 46, 47, 48, 49, 50, 51, 52, 53, 54, 55, 56, 57, 58, 59, 60, 61, 62, 63, 64, 65, 66, 67, 68, 69, 70, 71, 72, 73, 74, 75, 76, 77, 78, 79, 80, 81, 82, 83, 84, 85, 86, 87, 88, 89, 90, 91, 92, 93, 94, 95, 96, 97, 98, 99, 100, 101, 102, 103, 104, 105, 106, 107, 108, 109, 110, 111, 112, 113, 114, 115, 116, 117, 118, 119, 120, 121, 122, 123, 124, 125, 126, 127, 128, 129, 130, 131, 132, 133, 134, 135, 136, 137, 138, 139, 140, 141, 142, 143, 144, 145, 146, 147, 148, 149, 150, 151, 152, 153, 154, 155, 156, 157, 158, 159, 160, 161, 162, 163, 164, 165, 166, 167, 168, 169, 170, 171, 172, 173, 174, 175, 176, 177, 178, 179, 180, 181, 182, 183, 184, 185, 186, 187, 188, 189, 190, 191, 192, 193, 194, 195, 196, 197, 198, 199, 200, 201, 202, 203, 204, 205, 206, 207, 208, 209, 210, 211, 212, 213, 214, 215, 216, 217, 218, 219, 220, 221, 222, 223, 224, 225, 226, 227, 228, 229, 230, 231, 232, 233, 234, 235, 236, 237, 238, 239, 240, 241, 242, 243, 244, 245, 246, 247, 248, 249, 250, 251, 252, 253, 254, 255, 256, 257, 258, 259, 260, 261, 262, 263, 264, 265, 266, 267, 268, 269, 270, 271, 272, 273, 274, 275, 276, 277, 278, 279, 280, 281, 282, 283, 284, 285, 286, 287, 288, 289, 290, 291, 292, 293, 294, 295, 296, 297, 298, 299, 300, 301, 302, 303, 304, 305, 306, 307, 308, 309, 310, 311, 312, 313, 314, 315, 316, 317, 318, 319, 320, 321, 322, 323, 324],
      "AcquisitionTime": ["205039.650000", "205040.950000", "205042.250000", "205043.550000", "205044.850000", "205046.150000", "205047.450000", "205048.750000", "205050.050000", "205051.350000", "205052.650000", "205053.950000", "205055.250000", "205056.550000", "205057.850000", "205059.150000", "205100.450000", "205101.750000", "205103.050000", "205104.350000", "205105.650000", "205106.950000", "205108.250000", "205109.550000", "205110.850000", "205112.150000", "205113.450000", "205114.750000", "205116.050000", "205117.350000", "205118.650000", "205119.950000", "205121.250000", "205122.550000", "205123.850000", "205125.150000", "205126.450000", "205127.750000", "205129.050000", "205130.350000", "205131.650000", "205132.950000", "205134.250000", "205135.550000", "205136.850000", "205138.150000", "205139.450000", "205140.750000", "205142.050000", "205143.350000", "205144.650000", "205145.950000", "205147.250000", "205148.550000", "205149.850000", "205151.150000", "205152.450000", "205153.750000", "205155.050000", "205156.350000", "205157.650000", "205158.950000", "205200.250000", "205201.550000", "205202.850000", "205204.150000", "205205.450000", "205206.750000", "205208.050000", "205209.350000", "205210.650000", "205211.950000", "205213.250000", "205214.550000", "205215.850000", "205217.150000", "205218.450000", "205219.750000", "205221.050000", "205222.350000", "205223.650000", "205224.950000", "205226.250000", "205227.550000", "205228.850000", "205230.150000", "205231.450000", "205232.750000", "205234.050000", "205235.350000", "205236.650000", "205237.950000", "205239.250000", "205240.550000", "205241.850000", "205243.150000", "205244.450000", "205245.750000", "205247.050000", "205248.350000", "205249.650000", "205250.950000", "205252.250000", "205253.550000", "205254.850000", "205256.150000", "205257.450000", "205258.750000", "205300.050000", "205301.350000", "205302.650000", "205303.950000", "205305.250000", "205306.550000", "205307.850000", "205309.150000", "205310.450000", "205311.750000", "205313.050000", "205314.350000", "205315.650000", "205316.950000", "205318.250000", "205319.550000", "205320.850000", "205322.150000", "205323.450000", "205324.750000", "205326.050000", "205327.350000", "205328.650000", "205329.950000", "205331.250000", "205332.550000", "205333.850000", "205335.150000", "205336.450000", "205337.750000", "205339.050000", "205340.350000", "205341.650000", "205342.950000", "205344.250000", "205345.550000", "205346.850000", "205348.150000", "205349.450000", "205350.750000", "205352.050000", "205353.350000", "205354.650000", "205355.950000", "205357.250000", "205358.550000", "205359.850000", "205401.150000", "205402.450000", "205403.750000", "205405.050000", "205406.350000", "205407.650000", "205408.950000", "205410.250000", "205411.550000", "205412.850000", "205414.150000", "205415.450000", "205416.750000", "205418.050000", "205419.350000", "205420.650000", "205421.950000", "205423.250000", "205424.550000", "205425.850000", "205427.150000", "205428.450000", "205429.750000", "205431.050000", "205432.350000", "205433.650000", "205434.950000", "205436.250000", "205437.550000", "205438.850000", "205440.150000", "205441.450000", "205442.750000", "205444.050000", "205445.350000", "205446.650000", "205447.950000", "205449.250000", "205450.550000", "205451.850000", "205453.150000", "205454.450000", "205455.750000", "205457.050000", "205458.350000", "205459.650000", "205500.950000", "205502.250000", "205503.550000", "205504.850000", "205506.150000", "205507.450000", "205508.750000", "205510.050000", "205511.350000", "205512.650000", "205513.950000", "205515.250000", "205516.550000", "205517.850000", "205519.150000", "205520.450000", "205521.750000", "205523.050000", "205524.350000", "205525.650000", "205526.950000", "205528.250000", "205529.550000", "205530.850000", "205532.150000", "205533.450000", "205534.750000", "205536.050000", "205537.350000", "205538.650000", "205539.950000", "205541.250000", "205542.550000", "205543.850000", "205545.150000", "205546.450000", "205547.750000", "205549.050000", "205550.350000", "205551.650000", "205552.950000", "205554.250000", "205555.550000", "205556.850000", "205558.150000", "205559.450000", "205600.750000", "205602.050000", "205603.350000", "205604.650000", "205605.950000", "205607.250000", "205608.550000", "205609.850000", "205611.150000", "205612.450000", "205613.750000", "205615.050000", "205616.350000", "205617.650000", "205618.950000", "205620.250000", "205621.550000", "205622.850000", "205624.150000", "205625.450000", "205626.750000", "205628.050000", "205629.350000", "205630.650000", "205631.950000", "205633.250000", "205634.550000", "205635.850000", "205637.150000", "205638.450000", "205639.750000", "205641.050000", "205642.350000", "205643.650000", "205644.950000", "205646.250000", "205647.550000", "205648.850000", "205650.150000", "205651.450000", "205652.750000", "205654.050000", "205655.350000", "205656.650000", "205657.950000", "205659.250000", "205700.550000", "205701.850000", "205703.150000", "205704.450000", "205705.750000", "205707.050000", "205708.350000", "205709.650000", "205710.950000", "205712.250000", "205713.550000", "205714.850000", "205716.150000", "205717.450000", "205718.750000", "205720.050000", "205721.350000", "205722.650000", "205723.950000", "205725.250000", "205726.550000", "205727.850000", "205729.150000", "205730.450000", "205731.750000", "205733.050000", "205734.350000", "205735.650000", "205736.950000", "205738.250000", "205739.550000"],
      "ContentTime": ["205114.812000", "205114.816000", "205114.819000", "205114.822000", "205114.825000", "205114.828000", "205114.831000", "205114.835000", "205114.849000", "205114.851000", "205114.854000", "205114.857000", "205114.867000", "205114.870000", "205114.873000", "205114.876000", "205114.879000", "205114.882000", "205114.885000", "205114.888000", "205114.891000", "205114.894000", "205114.897000", "205114.900000", "205114.903000", "205114.906000", "205154.773000", "205154.776000", "205154.779000", "205154.782000", "205154.785000", "205154.788000", "205154.791000", "205154.794000", "205154.797000", "205154.800000", "205154.803000", "205154.806000", "205154.809000", "205154.812000", "205154.815000", "205154.818000", "205154.821000", "205154.824000", "205154.827000", "205154.830000", "205154.832000", "205154.835000", "205154.838000", "205154.841000", "205154.854000", "205154.857000", "205154.860000", "205154.863000", "205154.866000", "205154.869000", "205154.872000", "205234.773000", "205234.776000", "205234.779000", "205234.782000", "205234.785000", "205234.788000", "205234.791000", "205234.794000", "205234.797000", "205234.799000", "205234.803000", "205234.806000", "205234.808000", "205234.811000", "205234.814000", "205234.817000", "205234.820000", "205234.823000", "205234.826000", "205234.829000", "205234.832000", "205234.835000", "205234.838000", "205234.841000", "205234.844000", "205234.853000", "205234.856000", "205234.859000", "205234.861000", "205234.864000", "205234.867000", "205314.772000", "205314.775000", "205314.778000", "205314.781000", "205314.784000", "205314.787000", "205314.790000", "205314.793000", "205314.796000", "205314.799000", "205314.802000", "205314.809000", "205314.812000", "205314.815000", "205314.818000", "205314.821000", "205314.824000", "205314.827000", "205314.830000", "205314.833000", "205314.836000", "205314.839000", "205314.841000", "205314.844000", "205314.847000", "205314.850000", "205314.853000", "205314.856000", "205314.859000", "205314.862000", "205314.865000", "205354.773000", "205354.776000", "205354.779000", "205354.782000", "205354.785000", "205354.788000", "205354.792000", "205354.795000", "205354.798000", "205354.801000", "205354.804000", "205354.807000", "205354.810000", "205354.813000", "205354.815000", "205354.818000", "205354.836000", "205354.839000", "205354.842000", "205354.845000", "205354.848000", "205354.851000", "205354.854000", "205354.857000", "205354.860000", "205354.863000", "205354.866000", "205354.869000", "205354.872000", "205354.875000", "205434.773000", "205434.776000", "205434.779000", "205434.782000", "205434.785000", "205434.788000", "205434.791000", "205434.794000", "205434.797000", "205434.800000", "205434.803000", "205434.806000", "205434.809000", "205434.812000", "205434.815000", "205434.818000", "205434.821000", "205434.824000", "205434.827000", "205434.830000", "205434.832000", "205434.835000", "205434.838000", "205434.841000", "205434.844000", "205434.847000", "205434.850000", "205434.853000", "205434.856000", "205434.859000", "205434.862000", "205514.772000", "205514.775000", "205514.778000", "205514.781000", "205514.784000", "205514.787000", "205514.790000", "205514.793000", "205514.796000", "205514.799000", "205514.802000", "205514.805000", "205514.808000", "205514.811000", "205514.814000", "205514.817000", "205514.820000", "205514.823000", "205514.826000", "205514.829000", "205514.832000", "205514.835000", "205514.837000", "205514.840000", "205514.843000", "205514.846000", "205514.849000", "205514.852000", "205514.855000", "205514.858000", "205514.861000", "205554.773000", "205554.776000", "205554.779000", "205554.782000", "205554.785000", "205554.788000", "205554.791000", "205554.794000", "205554.797000", "205554.800000", "205554.802000", "205554.805000", "205554.809000", "205554.811000", "205554.814000", "205554.817000", "205554.820000", "205554.823000", "205554.826000", "205554.829000", "205554.832000", "205554.835000", "205554.838000", "205554.841000", "205554.844000", "205554.847000", "205554.850000", "205554.853000", "205554.856000", "205554.859000", "205554.862000", "205634.773000", "205634.776000", "205634.779000", "205634.782000", "205634.785000", "205634.788000", "205634.791000", "205634.794000", "205634.797000", "205634.800000", "205634.803000", "205634.806000", "205634.809000", "205634.812000", "205634.815000", "205634.818000", "205634.821000", "205634.824000", "205634.826000", "205634.830000", "205634.832000", "205634.835000", "205634.838000", "205634.841000", "205634.844000", "205634.847000", "205634.850000", "205634.853000", "205634.856000", "205634.859000", "205634.862000", "205714.773000", "205714.776000", "205714.779000", "205714.782000", "205714.785000", "205714.788000", "205714.791000", "205714.794000", "205714.797000", "205714.800000", "205714.803000", "205714.806000", "205714.809000", "205714.812000", "205714.815000", "205714.818000", "205714.820000", "205714.823000", "205714.826000", "205714.829000", "205714.832000", "205714.835000", "205714.838000", "205714.841000", "205714.844000", "205714.847000", "205714.850000", "205714.853000", "205714.856000", "205714.859000", "205741.058000", "205741.062000", "205741.064000", "205741.068000", "205741.071000", "205741.074000", "205741.077000", "205741.080000", "205741.083000", "205741.086000", "205741.088000", "205741.091000", "205741.094000", "205741.097000", "205741.100000", "205741.103000", "205741.106000", "205741.109000", "205741.112000", "205741.115000", "205741.125000"],
      "InstanceCreationTime": ["205114.812000", "205114.816000", "205114.819000", "205114.822000", "205114.825000", "205114.828000", "205114.831000", "205114.835000", "205114.849000", "205114.851000", "205114.854000", "205114.857000", "205114.867000", "205114.870000", "205114.873000", "205114.876000", "205114.879000", "205114.882000", "205114.885000", "205114.888000", "205114.891000", "205114.894000", "205114.897000", "205114.900000", "205114.903000", "205114.906000", "205154.773000", "205154.776000", "205154.779000", "205154.782000", "205154.785000", "205154.788000", "205154.791000", "205154.794000", "205154.797000", "205154.800000", "205154.803000", "205154.806000", "205154.809000", "205154.812000", "205154.815000", "205154.818000", "205154.821000", "205154.824000", "205154.827000", "205154.830000", "205154.832000", "205154.835000", "205154.838000", "205154.841000", "205154.854000", "205154.857000", "205154.860000", "205154.863000", "205154.866000", "205154.869000", "205154.872000", "205234.773000", "205234.776000", "205234.779000", "205234.782000", "205234.785000", "205234.788000", "205234.791000", "205234.794000", "205234.797000", "205234.799000", "205234.803000", "205234.806000", "205234.808000", "205234.811000", "205234.814000", "205234.817000", "205234.820000", "205234.823000", "205234.826000", "205234.829000", "205234.832000", "205234.835000", "205234.838000", "205234.841000", "205234.844000", "205234.853000", "205234.856000", "205234.859000", "205234.861000", "205234.864000", "205234.867000", "205314.772000", "205314.775000", "205314.778000", "205314.781000", "205314.784000", "205314.787000", "205314.790000", "205314.793000", "205314.796000", "205314.799000", "205314.802000", "205314.809000", "205314.812000", "205314.815000", "205314.818000", "205314.821000", "205314.824000", "205314.827000", "205314.830000", "205314.833000", "205314.836000", "205314.839000", "205314.841000", "205314.844000", "205314.847000", "205314.850000", "205314.853000", "205314.856000", "205314.859000", "205314.862000", "205314.865000", "205354.773000", "205354.776000", "205354.779000", "205354.782000", "205354.785000", "205354.788000", "205354.792000", "205354.795000", "205354.798000", "205354.801000", "205354.804000", "205354.807000", "205354.810000", "205354.813000", "205354.815000", "205354.818000", "205354.836000", "205354.839000", "205354.842000", "205354.845000", "205354.848000", "205354.851000", "205354.854000", "205354.857000", "205354.860000", "205354.863000", "205354.866000", "205354.869000", "205354.872000", "205354.875000", "205434.773000", "205434.776000", "205434.779000", "205434.782000", "205434.785000", "205434.788000", "205434.791000", "205434.794000", "205434.797000", "205434.800000", "205434.803000", "205434.806000", "205434.809000", "205434.812000", "205434.815000", "205434.818000", "205434.821000", "205434.824000", "205434.827000", "205434.830000", "205434.832000", "205434.835000", "205434.838000", "205434.841000", "205434.844000", "205434.847000", "205434.850000", "205434.853000", "205434.856000", "205434.859000", "205434.862000", "205514.772000", "205514.775000", "205514.778000", "205514.781000", "205514.784000", "205514.787000", "205514.790000", "205514.793000", "205514.796000", "205514.799000", "205514.802000", "205514.805000", "205514.808000", "205514.811000", "205514.814000", "205514.817000", "205514.820000", "205514.823000", "205514.826000", "205514.829000", "205514.832000", "205514.835000", "205514.837000", "205514.840000", "205514.843000", "205514.846000", "205514.849000", "205514.852000", "205514.855000", "205514.858000", "205514.861000", "205554.773000", "205554.776000", "205554.779000", "205554.782000", "205554.785000", "205554.788000", "205554.791000", "205554.794000", "205554.797000", "205554.800000", "205554.802000", "205554.805000", "205554.809000", "205554.811000", "205554.814000", "205554.817000", "205554.820000", "205554.823000", "205554.826000", "205554.829000", "205554.832000", "205554.835000", "205554.838000", "205554.841000", "205554.844000", "205554.847000", "205554.850000", "205554.853000", "205554.856000", "205554.859000", "205554.862000", "205634.773000", "205634.776000", "205634.779000", "205634.782000", "205634.785000", "205634.788000", "205634.791000", "205634.794000", "205634.797000", "205634.800000", "205634.803000", "205634.806000", "205634.809000", "205634.812000", "205634.815000", "205634.818000", "205634.821000", "205634.824000", "205634.826000", "205634.830000", "205634.832000", "205634.835000", "205634.838000", "205634.841000", "205634.844000", "205634.847000", "205634.850000", "205634.853000", "205634.856000", "205634.859000", "205634.862000", "205714.773000", "205714.776000", "205714.779000", "205714.782000", "205714.785000", "205714.788000", "205714.791000", "205714.794000", "205714.797000", "205714.800000", "205714.803000", "205714.806000", "205714.809000", "205714.812000", "205714.815000", "205714.818000", "205714.820000", "205714.823000", "205714.826000", "205714.829000", "205714.832000", "205714.835000", "205714.838000", "205714.841000", "205714.844000", "205714.847000", "205714.850000", "205714.853000", "205714.856000", "205714.859000", "205741.058000", "205741.062000", "205741.064000", "205741.068000", "205741.071000", "205741.074000", "205741.077000", "205741.080000", "205741.083000", "205741.086000", "205741.088000", "205741.091000", "205741.094000", "205741.097000", "205741.100000", "205741.103000", "205741.106000", "205741.109000", "205741.112000", "205741.115000", "205741.125000"],
      "InstanceNumber": [1, 2, 3, 4, 5, 6, 7, 8, 9, 10, 11, 12, 13, 14, 15, 16, 17, 18, 19, 20, 21, 22, 23, 24, 25, 26, 27, 28, 29, 30, 31, 32, 33, 34, 35, 36, 37, 38, 39, 40, 41, 42, 43, 44, 45, 46, 47, 48, 49, 50, 51, 52, 53, 54, 55, 56, 57, 58, 59, 60, 61, 62, 63, 64, 65, 66, 67, 68, 69, 70, 71, 72, 73, 74, 75, 76, 77, 78, 79, 80, 81, 82, 83, 84, 85, 86, 87, 88, 89, 90, 91, 92, 93, 94, 95, 96, 97, 98, 99, 100, 101, 102, 103, 104, 105, 106, 107, 108, 109, 110, 111, 112, 113, 114, 115, 116, 117, 118, 119, 120, 121, 122, 123, 124, 125, 126, 127, 128, 129, 130, 131, 132, 133, 134, 135, 136, 137, 138, 139, 140, 141, 142, 143, 144, 145, 146, 147, 148, 149, 150, 151, 152, 153, 154, 155, 156, 157, 158, 159, 160, 161, 162, 163, 164, 165, 166, 167, 168, 169, 170, 171, 172, 173, 174, 175, 176, 177, 178, 179, 180, 181, 182, 183, 184, 185, 186, 187, 188, 189, 190, 191, 192, 193, 194, 195, 196, 197, 198, 199, 200, 201, 202, 203, 204, 205, 206, 207, 208, 209, 210, 211, 212, 213, 214, 215, 216, 217, 218, 219, 220, 221, 222, 223, 224, 225, 226, 227, 228, 229, 230, 231, 232, 233, 234, 235, 236, 237, 238, 239, 240, 241, 242, 243, 244, 245, 246, 247, 248, 249, 250, 251, 252, 253, 254, 255, 256, 257, 258, 259, 260, 261, 262, 263, 264, 265, 266, 267, 268, 269, 270, 271, 272, 273, 274, 275, 276, 277, 278, 279, 280, 281, 282, 283, 284, 285, 286, 287, 288, 289, 290, 291, 292, 293, 294, 295, 296, 297, 298, 299, 300, 301, 302, 303, 304, 305, 306, 307, 308, 309, 310, 311, 312, 313, 314, 315, 316, 317, 318, 319, 320, 321, 322, 323, 324],
      "LargestImagePixelValue": [25050, 24374, 23885, 23592, 23800, 23645, 23602, 23203, 23260, 23395, 23148, 23435, 23131, 23451, 22927, 23195, 23195, 23231, 23328, 23049, 23231, 23314, 23371, 23482, 23273, 23442, 23242, 23458, 23108, 23083, 23299, 23042, 23565, 23003, 23230, 23052, 23151, 23355, 23190, 23344, 22812, 22900, 23205, 22751, 23102, 23346, 23159, 23030, 22290, 24547, 24602, 24446, 24471, 22723, 18973, 24014, 22375, 22383, 21624, 20535, 20810, 20634, 20326, 20301, 21275, 23454, 24324, 23532, 23285, 23477, 23762, 23650, 23075, 23310, 23774, 23460, 23108, 23412, 23699, 23653, 23095, 25196, 24558, 23654, 24340, 24320, 23899, 24202, 24383, 24552, 25109, 24199, 23178, 23104, 24678, 20941, 22991, 22680, 21301, 20342, 19309, 22309, 27159, 25248, 24774, 24727, 24073, 22000, 21430, 22005, 21871, 21138, 19778, 21753, 26322, 26852, 24680, 24580, 23971, 24470, 24543, 23831, 23447, 23401, 23466, 23473, 23794, 23370, 23421, 23755, 23071, 23278, 23530, 23648, 23625, 23324, 23216, 23381, 22070, 23712, 23011, 22743, 22897, 21078, 24772, 22679, 21452, 20984, 20871, 22088, 21730, 20615, 24506, 22859, 22850, 21269, 21556, 22593, 23558, 22396, 22081, 22203, 22343, 22623, 22690, 22920, 22386, 24559, 25231, 23591, 23779, 22962, 23589, 23605, 23394, 23890, 23380, 23604, 23516, 23653, 23570, 23719, 23788, 23305, 23150, 23758, 23913, 21626, 20722, 20926, 22083, 21013, 20527, 21262, 21552, 23076, 20432, 21336, 21298, 21904, 21457, 20445, 23217, 21877, 22563, 22386, 22545, 21212, 25799, 20606, 20989, 20498, 22701, 22515, 22218, 22507, 23029, 23629, 23745, 23578, 23859, 23702, 23887, 24234, 23847, 24032, 23803, 24191, 24578, 24151, 24196, 24089, 26248, 22994, 23086, 22454, 22266, 24296, 23718, 22969, 20864, 20739, 20157, 19104, 23956, 23933, 18455, 17197, 20439, 19555, 20513, 20730, 21713, 20204, 19107, 24630, 22047, 22329, 23761, 21511, 22081, 22894, 22398, 21931, 21345, 21663, 20334, 21061, 25205, 26030, 23947, 22955, 22837, 22705, 23761, 20754, 21467, 22772, 22801, 22651, 23035, 23904, 23783, 24121, 24093, 23935, 22615, 25478, 25552, 24070, 24028, 23764, 23844, 23874, 23736, 25525, 24703, 24601, 25156, 25076, 23132, 27215, 25384, 24698, 25128, 24665, 24784, 24301, 23942, 23515, 23599, 23402, 23595, 23923, 23946, 23933, 23954, 24031, 24001, 24122, 23976, 24087, 25056, 22118],
      "WindowCenter": [6721.0, 6695.0, 6685.0, 6675.0, 6676.0, 6687.0, 6676.0, 6677.0, 6677.0, 6677.0, 6678.0, 6679.0, 6680.0, 6687.0, 6681.0, 6680.0, 6681.0, 6691.0, 6679.0, 6668.0, 6678.0, 6678.0, 6680.0, 6680.0, 6678.0, 6675.0, 6676.0, 6674.0, 6666.0, 6668.0, 6679.0, 6681.0, 6688.0, 6677.0, 6667.0, 6667.0, 6665.0, 6675.0, 6669.0, 6665.0, 6655.0, 6665.0, 6665.0, 6660.0, 6670.0, 6696.0, 6688.0, 6687.0, 6627.0, 6701.0, 6690.0, 6690.0, 6675.0, 6646.0, 6348.0, 6565.0, 6739.0, 6711.0, 6692.0, 6513.0, 6686.0, 6663.0, 6662.0, 6641.0, 6596.0, 6660.0, 6664.0, 6667.0, 6672.0, 6684.0, 6684.0, 6686.0, 6679.0, 6661.0, 6681.0, 6673.0, 6665.0, 6685.0, 6684.0, 6674.0, 6633.0, 6688.0, 6703.0, 6685.0, 6693.0, 6682.0, 6671.0, 6680.0, 6669.0, 6456.0, 6539.0, 6580.0, 6635.0, 6613.0, 6521.0, 6270.0, 6585.0, 6550.0, 6527.0, 6520.0, 6330.0, 6378.0, 6625.0, 6667.0, 6659.0, 6650.0, 6546.0, 6475.0, 6328.0, 6324.0, 6479.0, 6456.0, 6191.0, 6423.0, 6683.0, 6676.0, 6663.0, 6666.0, 6658.0, 6659.0, 6658.0, 6645.0, 6637.0, 6625.0, 6625.0, 6624.0, 6633.0, 6624.0, 6634.0, 6636.0, 6626.0, 6634.0, 6636.0, 6648.0, 6651.0, 6640.0, 6638.0, 6640.0, 6467.0, 6689.0, 6639.0, 6630.0, 6637.0, 6457.0, 6440.0, 6625.0, 6620.0, 6609.0, 6598.0, 6613.0, 6578.0, 6377.0, 6613.0, 6554.0, 6724.0, 6671.0, 6655.0, 6460.0, 6482.0, 6713.0, 6663.0, 6658.0, 6588.0, 6542.0, 6675.0, 6658.0, 6568.0, 6611.0, 6675.0, 6628.0, 6656.0, 6645.0, 6644.0, 6641.0, 6631.0, 6629.0, 6618.0, 6627.0, 6646.0, 6670.0, 6667.0, 6666.0, 6669.0, 6657.0, 6572.0, 6696.0, 6679.0, 6496.0, 6668.0, 6628.0, 6629.0, 6441.0, 6636.0, 6659.0, 6656.0, 6600.0, 6590.0, 6625.0, 6681.0, 6692.0, 6698.0, 6606.0, 6563.0, 6677.0, 6693.0, 6651.0, 6653.0, 6540.0, 6688.0, 6415.0, 6510.0, 6533.0, 6379.0, 6633.0, 6605.0, 6605.0, 6617.0, 6623.0, 6625.0, 6636.0, 6639.0, 6651.0, 6663.0, 6672.0, 6672.0, 6674.0, 6664.0, 6672.0, 6672.0, 6651.0, 6648.0, 6634.0, 6295.0, 6239.0, 6337.0, 6547.0, 6532.0, 6351.0, 6210.0, 6480.0, 6385.0, 6370.0, 6349.0, 6164.0, 6315.0, 6080.0, 6015.0, 5991.0, 6022.0, 6186.0, 6315.0, 6249.0, 6473.0, 6424.0, 6261.0, 6223.0, 6416.0, 6531.0, 6699.0, 6636.0, 6652.0, 6651.0, 6630.0, 6642.0, 6635.0, 6627.0, 6263.0, 6412.0, 6682.0, 6671.0, 6630.0, 6598.0, 6587.0, 6596.0, 6605.0, 6551.0, 6565.0, 6638.0, 6652.0, 6665.0, 6599.0, 6594.0, 6690.0, 6674.0, 6684.0, 6684.0, 6472.0, 6588.0, 6673.0, 6660.0, 6659.0, 6661.0, 6659.0, 6592.0, 6506.0, 6731.0, 6734.0, 6722.0, 6730.0, 6666.0, 6483.0, 6738.0, 6684.0, 6673.0, 6671.0, 6544.0, 6691.0, 6648.0, 6666.0, 6660.0, 6668.0, 6660.0, 6670.0, 6679.0, 6682.0, 6681.0, 6681.0, 6679.0, 6668.0, 6667.0, 6655.0, 6664.0, 6564.0, 6499.0],
