{
  "AcquisitionMatrixPE": 104,
  "AcquisitionNumber": 1,
  "AcquisitionTime": "11:47:31.485000",
  "BandwidthPerPixelPhaseEncode": 17.17,
  "BaseResolution": 104,
  "BodyPartExamined": "BRAIN",
  "ConsistencyInfo": "N4_VE11C_LATEST_20160120",
  "ConversionSoftware": "dcm2niix",
  "ConversionSoftwareVersion": "v1.0.20190410  GCC6.3.0",
  "DerivedVendorReportedEchoSpacing": 0.000560011,
  "DeviceSerialNumber": "166018",
  "DwellTime": 2.1e-06,
  "EchoTime": 0.035,
  "EchoTrainLength": 104,
  "EffectiveEchoSpacing": 0.000560011,
  "FlipAngle": 62,
  "ImageComments": "Unaliased_MB4_PE3_LB",
  "ImageOrientationPatientDICOM": [1, 0, 0, 0, 0.999998, -0.00174533],
  "ImageType": [
    "ORIGINAL",
    "PRIMARY",
    "M",
    "MB",
    "ND",
    "MOSAIC"
],
  "ImagingFrequency": 123.191,
  "InPlanePhaseEncodingDirectionDICOM": "COL",
  "InstitutionAddress": "Washington_Place_6_NYC_NYC_US_10003",
  "InstitutionName": "NYU_Center_for_Brain_Imaging",
  "InstitutionalDepartmentName": "Department",
  "MRAcquisitionType": "2D",
  "MagneticFieldStrength": 3,
  "Manufacturer": "Siemens",
  "ManufacturersModelName": "Prisma",
  "Modality": "MR",
  "MultibandAccelerationFactor": 4,
  "PartialFourier": 1,
  "PatientPosition": "HFS",
  "PercentPhaseFOV": 100,
  "PhaseEncodingDirection": "j-",
  "PhaseEncodingSteps": 104,
  "PhaseResolution": 1,
  "PixelBandwidth": 2290,
  "ProcedureStepDescription": "",
  "ProtocolName": "epi_MB4_2mm_motion",
  "PulseSequenceDetails": "%CustomerSeq%_cmrr_mbep2d_bold",
  "ReceiveCoilActiveElements": "HEA;HEP",
  "ReceiveCoilName": "Head_32",
  "ReconMatrixPE": 104,
  "RepetitionTime": 1.3,
  "SAR": 0.0810987,
  "ScanOptions": "FS",
  "ScanningSequence": "EP",
  "SequenceName": "epfid2d1_104",
  "SequenceVariant": "SK_SS",
  "SeriesDescription": "epi_MB4_2mm_motion",
  "SeriesNumber": 5,
  "ShimSetting": [232, -12625, -8422, 440, -109, 177, 14, 39],
  "SliceThickness": 2,
  "SliceTiming": [0, 0.56, 1.12, 0.4, 0.96, 0.24, 0.8, 0.08, 0.64, 1.2, 0.48, 1.04, 0.32, 0.88, 0.16, 0.72, 0, 0.56, 1.12, 0.4, 0.96, 0.24, 0.8, 0.08, 0.64, 1.2, 0.48, 1.04, 0.32, 0.88, 0.16, 0.72, 0, 0.56, 1.12, 0.4, 0.96, 0.24, 0.8, 0.08, 0.64, 1.2, 0.48, 1.04, 0.32, 0.88, 0.16, 0.72, 0, 0.56, 1.12, 0.4, 0.96, 0.24, 0.8, 0.08, 0.64, 1.2, 0.48, 1.04, 0.32, 0.88, 0.16, 0.72],
  "SoftwareVersions": "syngo_MR_E11",
  "SpacingBetweenSlices": 2,
  "StationName": "AWP166018",
  "TaskName": "TASK",
  "TotalReadoutTime": 0.0576811,
  "TxRefAmp": 231.604,
  "WipMemBlock": "2cc87ac3-07fa-4bca-acd5-81344a252d19||Sequence: R016 ve11c/master r/8780670; Nov 27 2017 15:05:12 by eja",
  "dcmmeta_affine": [
    [-2.0, 0.0, 0.0, 104.0],
    [0.0, 1.9999969005584717, -0.003490656614303589, -88.03287506103516],
    [0.0, 0.003490656614303589, 1.9999970197677612, -30.446304321289062],
    [0.0, 0.0, 0.0, 1.0]
],
  "dcmmeta_reorient_transform": [
    [0.0, -1.0, 0.0, 103.0],
    [1.0, 0.0, 0.0, 0.0],
    [0.0, 0.0, 1.0, 0.0],
    [0.0, 0.0, 0.0, 1.0]
],
  "dcmmeta_shape": [104, 104, 64, 324],
  "dcmmeta_slice_dim": 2,
  "dcmmeta_version": 0.6,
  "global": {
    "const": {
      "AccessionNumber": "jsey0mwv",
  "NumberOfVolumes": 324,
      "AcquisitionMatrix": [104, 0, 0, 104],
      "AngioFlag": "N",
      "BitsAllocated": 16,
      "BitsStored": 16,
      "BodyPartExamined": "BRAIN",
      "Columns": 832,
      "EchoNumbers": 1,
      "EchoTime": 35.0,
      "EchoTrainLength": 104,
      "FlipAngle": 62.0,
      "HighBit": 15,
      "ImageOrientationPatient": [1.0, 0.0, 0.0, 0.0, 0.99999847691345, -0.0017453282742],
      "ImagePositionPatient": [-832.0, -845.96570228204, -28.816166905175],
      "ImageType": [
        "ORIGINAL",
        "PRIMARY",
        "M",
        "MB",
        "ND",
        "MOSAIC"
],
      "ImagedNucleus": "1H",
      "ImagingFrequency": 123.191135,
      "InPlanePhaseEncodingDirection": "COL",
      "MRAcquisitionType": "2D",
      "MagneticFieldStrength": 3.0,
      "Manufacturer": "SIEMENS",
      "ManufacturerModelName": "Prisma",
      "Modality": "MR",
      "NumberOfAverages": 1.0,
      "NumberOfPhaseEncodingSteps": 104,
      "PercentPhaseFieldOfView": 100.0,
      "PercentSampling": 100.0,
      "PerformedProcedureStepStartTime": "111746.392000",
      "PhotometricInterpretation": "MONOCHROME2",
      "PixelBandwidth": 2290.0,
      "PixelRepresentation": 0,
      "PixelSpacing": [2.0, 2.0],
      "ProtocolName": "epi_MB4_2mm_motion",
      "RepetitionTime": 1300.0,
      "Rows": 832,
      "SAR": 0.08109868255576,
      "SamplesPerPixel": 1,
      "ScanOptions": "FS",
      "ScanningSequence": "EP",
      "SequenceName": "epfid2d1_104",
      "SequenceVariant": [
        "SK",
        "SS"
],
      "SeriesDescription": "epi_MB4_2mm_motion",
      "SeriesNumber": 5,
      "SeriesTime": "114803.203000",
      "SliceLocation": -30.292610874842,
      "SliceThickness": 2.0,
      "SmallestImagePixelValue": 0,
      "SoftwareVersions": "syngo MR E11",
      "SpacingBetweenSlices": 2.0000000186415,
      "SpecificCharacterSet": "ISO_IR 100",
      "StudyID": "1",
      "StudyTime": "111746.194000",
      "TransmitCoilName": "Body",
      "VariableFlipAngleFlag": "N",
      "WindowCenterWidthExplanation": "Algo1",
      "dBdt": 0.0},
    "slices": {}
  },
  "time": {
    "samples": {
      "AcquisitionNumber": [1, 2, 3, 4, 5, 6, 7, 8, 9, 10, 11, 12, 13, 14, 15, 16, 17, 18, 19, 20, 21, 22, 23, 24, 25, 26, 27, 28, 29, 30, 31, 32, 33, 34, 35, 36, 37, 38, 39, 40, 41, 42, 43, 44, 45, 46, 47, 48, 49, 50, 51, 52, 53, 54, 55, 56, 57, 58, 59, 60, 61, 62, 63, 64, 65, 66, 67, 68, 69, 70, 71, 72, 73, 74, 75, 76, 77, 78, 79, 80, 81, 82, 83, 84, 85, 86, 87, 88, 89, 90, 91, 92, 93, 94, 95, 96, 97, 98, 99, 100, 101, 102, 103, 104, 105, 106, 107, 108, 109, 110, 111, 112, 113, 114, 115, 116, 117, 118, 119, 120, 121, 122, 123, 124, 125, 126, 127, 128, 129, 130, 131, 132, 133, 134, 135, 136, 137, 138, 139, 140, 141, 142, 143, 144, 145, 146, 147, 148, 149, 150, 151, 152, 153, 154, 155, 156, 157, 158, 159, 160, 161, 162, 163, 164, 165, 166, 167, 168, 169, 170, 171, 172, 173, 174, 175, 176, 177, 178, 179, 180, 181, 182, 183, 184, 185, 186, 187, 188, 189, 190, 191, 192, 193, 194, 195, 196, 197, 198, 199, 200, 201, 202, 203, 204, 205, 206, 207, 208, 209, 210, 211, 212, 213, 214, 215, 216, 217, 218, 219, 220, 221, 222, 223, 224, 225, 226, 227, 228, 229, 230, 231, 232, 233, 234, 235, 236, 237, 238, 239, 240, 241, 242, 243, 244, 245, 246, 247, 248, 249, 250, 251, 252, 253, 254, 255, 256, 257, 258, 259, 260, 261, 262, 263, 264, 265, 266, 267, 268, 269, 270, 271, 272, 273, 274, 275, 276, 277, 278, 279, 280, 281, 282, 283, 284, 285, 286, 287, 288, 289, 290, 291, 292, 293, 294, 295, 296, 297, 298, 299, 300, 301, 302, 303, 304, 305, 306, 307, 308, 309, 310, 311, 312, 313, 314, 315, 316, 317, 318, 319, 320, 321, 322, 323, 324],
      "AcquisitionTime": ["114731.485000", "114732.785000", "114734.085000", "114735.385000", "114736.685000", "114737.985000", "114739.285000", "114740.585000", "114741.885000", "114743.185000", "114744.485000", "114745.785000", "114747.085000", "114748.385000", "114749.685000", "114750.985000", "114752.285000", "114753.585000", "114754.885000", "114756.185000", "114757.485000", "114758.785000", "114800.085000", "114801.385000", "114802.685000", "114803.985000", "114805.285000", "114806.585000", "114807.885000", "114809.185000", "114810.485000", "114811.785000", "114813.085000", "114814.385000", "114815.685000", "114816.985000", "114818.285000", "114819.585000", "114820.885000", "114822.185000", "114823.485000", "114824.785000", "114826.085000", "114827.385000", "114828.685000", "114829.985000", "114831.285000", "114832.585000", "114833.885000", "114835.185000", "114836.485000", "114837.785000", "114839.085000", "114840.385000", "114841.685000", "114842.985000", "114844.285000", "114845.585000", "114846.885000", "114848.185000", "114849.485000", "114850.785000", "114852.085000", "114853.385000", "114854.685000", "114855.985000", "114857.285000", "114858.585000", "114859.885000", "114901.185000", "114902.485000", "114903.785000", "114905.085000", "114906.385000", "114907.685000", "114908.985000", "114910.285000", "114911.585000", "114912.885000", "114914.185000", "114915.485000", "114916.785000", "114918.085000", "114919.385000", "114920.685000", "114921.985000", "114923.285000", "114924.585000", "114925.885000", "114927.185000", "114928.485000", "114929.785000", "114931.085000", "114932.385000", "114933.685000", "114934.985000", "114936.285000", "114937.585000", "114938.885000", "114940.185000", "114941.485000", "114942.785000", "114944.085000", "114945.385000", "114946.685000", "114947.985000", "114949.285000", "114950.585000", "114951.885000", "114953.185000", "114954.485000", "114955.785000", "114957.085000", "114958.385000", "114959.685000", "115000.985000", "115002.285000", "115003.585000", "115004.885000", "115006.185000", "115007.485000", "115008.785000", "115010.085000", "115011.385000", "115012.685000", "115013.985000", "115015.285000", "115016.585000", "115017.885000", "115019.185000", "115020.485000", "115021.785000", "115023.085000", "115024.385000", "115025.685000", "115026.985000", "115028.285000", "115029.585000", "115030.885000", "115032.185000", "115033.485000", "115034.785000", "115036.085000", "115037.385000", "115038.685000", "115039.985000", "115041.285000", "115042.585000", "115043.885000", "115045.185000", "115046.485000", "115047.785000", "115049.085000", "115050.385000", "115051.685000", "115052.985000", "115054.285000", "115055.585000", "115056.885000", "115058.185000", "115059.485000", "115100.785000", "115102.085000", "115103.385000", "115104.685000", "115105.985000", "115107.285000", "115108.585000", "115109.885000", "115111.185000", "115112.485000", "115113.785000", "115115.085000", "115116.385000", "115117.685000", "115118.985000", "115120.285000", "115121.585000", "115122.885000", "115124.185000", "115125.485000", "115126.785000", "115128.085000", "115129.385000", "115130.685000", "115131.985000", "115133.285000", "115134.585000", "115135.885000", "115137.185000", "115138.485000", "115139.785000", "115141.085000", "115142.385000", "115143.685000", "115144.985000", "115146.285000", "115147.585000", "115148.885000", "115150.185000", "115151.485000", "115152.785000", "115154.085000", "115155.385000", "115156.685000", "115157.985000", "115159.285000", "115200.585000", "115201.885000", "115203.185000", "115204.485000", "115205.785000", "115207.085000", "115208.385000", "115209.685000", "115210.985000", "115212.285000", "115213.585000", "115214.885000", "115216.185000", "115217.485000", "115218.785000", "115220.085000", "115221.385000", "115222.685000", "115223.985000", "115225.285000", "115226.585000", "115227.885000", "115229.185000", "115230.485000", "115231.785000", "115233.085000", "115234.385000", "115235.685000", "115236.985000", "115238.285000", "115239.585000", "115240.885000", "115242.185000", "115243.485000", "115244.785000", "115246.085000", "115247.385000", "115248.685000", "115249.985000", "115251.285000", "115252.585000", "115253.885000", "115255.185000", "115256.485000", "115257.785000", "115259.085000", "115300.385000", "115301.685000", "115302.985000", "115304.285000", "115305.585000", "115306.885000", "115308.185000", "115309.485000", "115310.785000", "115312.085000", "115313.385000", "115314.685000", "115315.985000", "115317.285000", "115318.585000", "115319.885000", "115321.185000", "115322.485000", "115323.785000", "115325.085000", "115326.385000", "115327.685000", "115328.985000", "115330.285000", "115331.585000", "115332.885000", "115334.185000", "115335.485000", "115336.785000", "115338.085000", "115339.385000", "115340.685000", "115341.985000", "115343.285000", "115344.585000", "115345.885000", "115347.185000", "115348.485000", "115349.785000", "115351.085000", "115352.385000", "115353.685000", "115354.985000", "115356.285000", "115357.585000", "115358.885000", "115400.185000", "115401.485000", "115402.785000", "115404.085000", "115405.385000", "115406.685000", "115407.985000", "115409.285000", "115410.585000", "115411.885000", "115413.185000", "115414.485000", "115415.785000", "115417.085000", "115418.385000", "115419.685000", "115420.985000", "115422.285000", "115423.585000", "115424.885000", "115426.185000", "115427.485000", "115428.785000", "115430.085000", "115431.385000"],
      "ContentTime": ["114803.206000", "114803.210000", "114803.213000", "114803.216000", "114803.218000", "114803.231000", "114803.234000", "114803.237000", "114803.239000", "114803.242000", "114803.245000", "114803.248000", "114803.251000", "114803.254000", "114803.257000", "114803.266000", "114803.269000", "114803.272000", "114803.275000", "114803.277000", "114803.280000", "114803.283000", "114803.286000", "114843.174000", "114843.177000", "114843.180000", "114843.183000", "114843.186000", "114843.189000", "114843.191000", "114843.194000", "114843.197000", "114843.200000", "114843.203000", "114843.206000", "114843.209000", "114843.211000", "114843.214000", "114843.217000", "114843.220000", "114843.223000", "114843.226000", "114843.228000", "114843.231000", "114843.234000", "114843.237000", "114843.240000", "114843.243000", "114843.246000", "114843.249000", "114843.251000", "114843.254000", "114843.257000", "114843.260000", "114923.175000", "114923.178000", "114923.181000", "114923.184000", "114923.187000", "114923.189000", "114923.192000", "114923.195000", "114923.198000", "114923.201000", "114923.204000", "114923.207000", "114923.209000", "114923.219000", "114923.222000", "114923.225000", "114923.228000", "114923.231000", "114923.233000", "114923.236000", "114923.239000", "114923.242000", "114923.245000", "114923.248000", "114923.255000", "114923.258000", "114923.260000", "114923.263000", "114923.266000", "114923.269000", "114923.272000", "115003.175000", "115003.178000", "115003.181000", "115003.184000", "115003.187000", "115003.190000", "115003.192000", "115003.195000", "115003.198000", "115003.201000", "115003.204000", "115003.212000", "115003.215000", "115003.218000", "115003.221000", "115003.224000", "115003.227000", "115003.230000", "115003.233000", "115003.236000", "115003.239000", "115003.242000", "115003.245000", "115003.248000", "115003.252000", "115003.256000", "115003.259000", "115003.262000", "115003.265000", "115003.268000", "115023.174000", "115023.177000", "115023.180000", "115023.183000", "115023.186000", "115023.188000", "115023.191000", "115023.194000", "115023.197000", "115023.200000", "115023.203000", "115023.206000", "115023.209000", "115023.212000", "115023.214000", "115023.217000", "115103.174000", "115103.177000", "115103.180000", "115103.183000", "115103.186000", "115103.188000", "115103.191000", "115103.194000", "115103.197000", "115103.200000", "115103.203000", "115103.206000", "115103.208000", "115103.211000", "115103.214000", "115103.217000", "115103.220000", "115103.223000", "115103.226000", "115103.229000", "115103.232000", "115103.234000", "115103.237000", "115103.240000", "115103.243000", "115103.246000", "115103.255000", "115103.258000", "115103.261000", "115103.264000", "115103.267000", "115143.175000", "115143.178000", "115143.181000", "115143.184000", "115143.187000", "115143.190000", "115143.193000", "115143.195000", "115143.198000", "115143.201000", "115143.215000", "115143.218000", "115143.221000", "115143.224000", "115143.226000", "115143.229000", "115143.232000", "115143.235000", "115143.238000", "115143.241000", "115143.244000", "115143.247000", "115143.250000", "115143.253000", "115143.255000", "115143.258000", "115143.261000", "115143.264000", "115143.267000", "115143.271000", "115223.175000", "115223.178000", "115223.181000", "115223.184000", "115223.187000", "115223.190000", "115223.193000", "115223.196000", "115223.198000", "115223.201000", "115223.204000", "115223.207000", "115223.210000", "115223.213000", "115223.216000", "115223.219000", "115223.221000", "115223.224000", "115223.227000", "115223.230000", "115223.233000", "115223.242000", "115223.245000", "115223.248000", "115223.251000", "115223.253000", "115223.266000", "115223.269000", "115223.272000", "115223.275000", "115223.277000", "115303.174000", "115303.177000", "115303.180000", "115303.183000", "115303.186000", "115303.188000", "115303.191000", "115303.194000", "115303.197000", "115303.200000", "115303.203000", "115303.206000", "115303.209000", "115303.212000", "115303.215000", "115303.217000", "115303.229000", "115303.232000", "115303.235000", "115303.238000", "115303.240000", "115303.243000", "115303.246000", "115303.249000", "115303.252000", "115303.255000", "115303.258000", "115303.261000", "115303.264000", "115303.267000", "115303.269000", "115343.175000", "115343.178000", "115343.181000", "115343.184000", "115343.187000", "115343.190000", "115343.192000", "115343.195000", "115343.198000", "115343.201000", "115343.204000", "115343.207000", "115343.210000", "115343.213000", "115343.216000", "115343.218000", "115343.221000", "115343.224000", "115343.227000", "115343.230000", "115343.233000", "115343.236000", "115343.239000", "115343.242000", "115343.244000", "115343.247000", "115343.250000", "115343.253000", "115343.256000", "115343.259000", "115343.262000", "115423.175000", "115423.178000", "115423.181000", "115423.184000", "115423.187000", "115423.190000", "115423.193000", "115423.195000", "115423.198000", "115423.201000", "115423.204000", "115423.207000", "115423.210000", "115423.222000", "115423.226000", "115423.229000", "115423.232000", "115423.235000", "115423.238000", "115423.241000", "115423.243000", "115423.246000", "115423.249000", "115423.252000", "115423.255000", "115423.258000", "115423.261000", "115423.264000", "115423.267000", "115423.270000", "115433.686000", "115433.690000", "115433.693000", "115433.696000", "115433.699000", "115433.702000", "115433.704000", "115433.707000", "115433.710000"],
      "InstanceCreationTime": ["114803.206000", "114803.210000", "114803.213000", "114803.216000", "114803.218000", "114803.231000", "114803.234000", "114803.237000", "114803.239000", "114803.242000", "114803.245000", "114803.248000", "114803.251000", "114803.254000", "114803.257000", "114803.266000", "114803.269000", "114803.272000", "114803.275000", "114803.277000", "114803.280000", "114803.283000", "114803.286000", "114843.174000", "114843.177000", "114843.180000", "114843.183000", "114843.186000", "114843.189000", "114843.191000", "114843.194000", "114843.197000", "114843.200000", "114843.203000", "114843.206000", "114843.209000", "114843.211000", "114843.214000", "114843.217000", "114843.220000", "114843.223000", "114843.226000", "114843.228000", "114843.231000", "114843.234000", "114843.237000", "114843.240000", "114843.243000", "114843.246000", "114843.249000", "114843.251000", "114843.254000", "114843.257000", "114843.260000", "114923.175000", "114923.178000", "114923.181000", "114923.184000", "114923.187000", "114923.189000", "114923.192000", "114923.195000", "114923.198000", "114923.201000", "114923.204000", "114923.207000", "114923.209000", "114923.219000", "114923.222000", "114923.225000", "114923.228000", "114923.231000", "114923.233000", "114923.236000", "114923.239000", "114923.242000", "114923.245000", "114923.248000", "114923.255000", "114923.258000", "114923.260000", "114923.263000", "114923.266000", "114923.269000", "114923.272000", "115003.175000", "115003.178000", "115003.181000", "115003.184000", "115003.187000", "115003.190000", "115003.192000", "115003.195000", "115003.198000", "115003.201000", "115003.204000", "115003.212000", "115003.215000", "115003.218000", "115003.221000", "115003.224000", "115003.227000", "115003.230000", "115003.233000", "115003.236000", "115003.239000", "115003.242000", "115003.245000", "115003.248000", "115003.252000", "115003.256000", "115003.259000", "115003.262000", "115003.265000", "115003.268000", "115023.174000", "115023.177000", "115023.180000", "115023.183000", "115023.186000", "115023.188000", "115023.191000", "115023.194000", "115023.197000", "115023.200000", "115023.203000", "115023.206000", "115023.209000", "115023.212000", "115023.214000", "115023.217000", "115103.174000", "115103.177000", "115103.180000", "115103.183000", "115103.186000", "115103.188000", "115103.191000", "115103.194000", "115103.197000", "115103.200000", "115103.203000", "115103.206000", "115103.208000", "115103.211000", "115103.214000", "115103.217000", "115103.220000", "115103.223000", "115103.226000", "115103.229000", "115103.232000", "115103.234000", "115103.237000", "115103.240000", "115103.243000", "115103.246000", "115103.255000", "115103.258000", "115103.261000", "115103.264000", "115103.267000", "115143.175000", "115143.178000", "115143.181000", "115143.184000", "115143.187000", "115143.190000", "115143.193000", "115143.195000", "115143.198000", "115143.201000", "115143.215000", "115143.218000", "115143.221000", "115143.224000", "115143.226000", "115143.229000", "115143.232000", "115143.235000", "115143.238000", "115143.241000", "115143.244000", "115143.247000", "115143.250000", "115143.253000", "115143.255000", "115143.258000", "115143.261000", "115143.264000", "115143.267000", "115143.271000", "115223.175000", "115223.178000", "115223.181000", "115223.184000", "115223.187000", "115223.190000", "115223.193000", "115223.196000", "115223.198000", "115223.201000", "115223.204000", "115223.207000", "115223.210000", "115223.213000", "115223.216000", "115223.219000", "115223.221000", "115223.224000", "115223.227000", "115223.230000", "115223.233000", "115223.242000", "115223.245000", "115223.248000", "115223.251000", "115223.253000", "115223.266000", "115223.269000", "115223.272000", "115223.275000", "115223.277000", "115303.174000", "115303.177000", "115303.180000", "115303.183000", "115303.186000", "115303.188000", "115303.191000", "115303.194000", "115303.197000", "115303.200000", "115303.203000", "115303.206000", "115303.209000", "115303.212000", "115303.215000", "115303.217000", "115303.229000", "115303.232000", "115303.235000", "115303.238000", "115303.240000", "115303.243000", "115303.246000", "115303.249000", "115303.252000", "115303.255000", "115303.258000", "115303.261000", "115303.264000", "115303.267000", "115303.269000", "115343.175000", "115343.178000", "115343.181000", "115343.184000", "115343.187000", "115343.190000", "115343.192000", "115343.195000", "115343.198000", "115343.201000", "115343.204000", "115343.207000", "115343.210000", "115343.213000", "115343.216000", "115343.218000", "115343.221000", "115343.224000", "115343.227000", "115343.230000", "115343.233000", "115343.236000", "115343.239000", "115343.242000", "115343.244000", "115343.247000", "115343.250000", "115343.253000", "115343.256000", "115343.259000", "115343.262000", "115423.175000", "115423.178000", "115423.181000", "115423.184000", "115423.187000", "115423.190000", "115423.193000", "115423.195000", "115423.198000", "115423.201000", "115423.204000", "115423.207000", "115423.210000", "115423.222000", "115423.226000", "115423.229000", "115423.232000", "115423.235000", "115423.238000", "115423.241000", "115423.243000", "115423.246000", "115423.249000", "115423.252000", "115423.255000", "115423.258000", "115423.261000", "115423.264000", "115423.267000", "115423.270000", "115433.686000", "115433.690000", "115433.693000", "115433.696000", "115433.699000", "115433.702000", "115433.704000", "115433.707000", "115433.710000"],
      "InstanceNumber": [1, 2, 3, 4, 5, 6, 7, 8, 9, 10, 11, 12, 13, 14, 15, 16, 17, 18, 19, 20, 21, 22, 23, 24, 25, 26, 27, 28, 29, 30, 31, 32, 33, 34, 35, 36, 37, 38, 39, 40, 41, 42, 43, 44, 45, 46, 47, 48, 49, 50, 51, 52, 53, 54, 55, 56, 57, 58, 59, 60, 61, 62, 63, 64, 65, 66, 67, 68, 69, 70, 71, 72, 73, 74, 75, 76, 77, 78, 79, 80, 81, 82, 83, 84, 85, 86, 87, 88, 89, 90, 91, 92, 93, 94, 95, 96, 97, 98, 99, 100, 101, 102, 103, 104, 105, 106, 107, 108, 109, 110, 111, 112, 113, 114, 115, 116, 117, 118, 119, 120, 121, 122, 123, 124, 125, 126, 127, 128, 129, 130, 131, 132, 133, 134, 135, 136, 137, 138, 139, 140, 141, 142, 143, 144, 145, 146, 147, 148, 149, 150, 151, 152, 153, 154, 155, 156, 157, 158, 159, 160, 161, 162, 163, 164, 165, 166, 167, 168, 169, 170, 171, 172, 173, 174, 175, 176, 177, 178, 179, 180, 181, 182, 183, 184, 185, 186, 187, 188, 189, 190, 191, 192, 193, 194, 195, 196, 197, 198, 199, 200, 201, 202, 203, 204, 205, 206, 207, 208, 209, 210, 211, 212, 213, 214, 215, 216, 217, 218, 219, 220, 221, 222, 223, 224, 225, 226, 227, 228, 229, 230, 231, 232, 233, 234, 235, 236, 237, 238, 239, 240, 241, 242, 243, 244, 245, 246, 247, 248, 249, 250, 251, 252, 253, 254, 255, 256, 257, 258, 259, 260, 261, 262, 263, 264, 265, 266, 267, 268, 269, 270, 271, 272, 273, 274, 275, 276, 277, 278, 279, 280, 281, 282, 283, 284, 285, 286, 287, 288, 289, 290, 291, 292, 293, 294, 295, 296, 297, 298, 299, 300, 301, 302, 303, 304, 305, 306, 307, 308, 309, 310, 311, 312, 313, 314, 315, 316, 317, 318, 319, 320, 321, 322, 323, 324],
      "LargestImagePixelValue": [27216, 26251, 26072, 25846, 24839, 26057, 25981, 25728, 25568, 25259, 25440, 25524, 25584, 25764, 25722, 25393, 25392, 25685, 25615, 25702, 25927, 25839, 25765, 25694, 25722, 25735, 25654, 25919, 26101, 26087, 25994, 25644, 25730, 25207, 25892, 26057, 25825, 26138, 25770, 25906, 25461, 25346, 25774, 25707, 26083, 25691, 25863, 25848, 25882, 25818, 25799, 25927, 26075, 26012, 26076, 25884, 26227, 26194, 26384, 26362, 26024, 26380, 25952, 22799, 23868, 27003, 25355, 24772, 24309, 24220, 25027, 24871, 24402, 25392, 23937, 24636, 23677, 24564, 26107, 24850, 25161, 25860, 26056, 23134, 23903, 24089, 22984, 23165, 23606, 22986, 23449, 23406, 23337, 23206, 23674, 23122, 23600, 23380, 23264, 22934, 23204, 22924, 23261, 22841, 23276, 23720, 23345, 22196, 25223, 23784, 23372, 23619, 22697, 24370, 26230, 26340, 24302, 23781, 23115, 23789, 24857, 26364, 24973, 24275, 23709, 24186, 25882, 24671, 23810, 23430, 23302, 24215, 24451, 25452, 23884, 22845, 22851, 22992, 22370, 23070, 22627, 23438, 22902, 23284, 23108, 23260, 22929, 23371, 23367, 23145, 23449, 23950, 23334, 23126, 23620, 23376, 23836, 23644, 23979, 23503, 23622, 23699, 23963, 23460, 23020, 23162, 23201, 23319, 23532, 23152, 27264, 24499, 23749, 23210, 23018, 22338, 23372, 23478, 23809, 23413, 23379, 23248, 24729, 22349, 22449, 23055, 22860, 23214, 23220, 23369, 23510, 23486, 23474, 23556, 23576, 23618, 23655, 23588, 23671, 23904, 23635, 23729, 23820, 23757, 23704, 23758, 22553, 22289, 22777, 23407, 25858, 24246, 24006, 24194, 25309, 23850, 23016, 22834, 23003, 23689, 24257, 23144, 22828, 22693, 22593, 22498, 23819, 23586, 23451, 23838, 24208, 24111, 24119, 23944, 24702, 23745, 24172, 23983, 23796, 24110, 23683, 24274, 24606, 24417, 24481, 24675, 24415, 25241, 24786, 24685, 23631, 24400, 22813, 22547, 22261, 22650, 25182, 24061, 22945, 23027, 22671, 22855, 21642, 23999, 23957, 23493, 23048, 23149, 24366, 24510, 24931, 22898, 22550, 22109, 23191, 26658, 25335, 24500, 24649, 24394, 24058, 24185, 23851, 23907, 24039, 23476, 24109, 23691, 24137, 24045, 24446, 24084, 24268, 24214, 24350, 24389, 24704, 24141, 24476, 22233, 24221, 23001, 22820, 22790, 22634, 24058, 24420, 23782, 23355, 23261, 23043, 22911, 23826, 24778, 24307, 23705, 23629, 23412, 25014, 24116, 22921, 22892, 22915, 23028],
      "WindowCenter": [7185.0, 7149.0, 7126.0, 7134.0, 7119.0, 7135.0, 7146.0, 7128.0, 7125.0, 7114.0, 7103.0, 7101.0, 7101.0, 7100.0, 7100.0, 7101.0, 7112.0, 7112.0, 7114.0, 7116.0, 7121.0, 7123.0, 7124.0, 7113.0, 7115.0, 7105.0, 7104.0, 7113.0, 7110.0, 7111.0, 7102.0, 7102.0, 7106.0, 7094.0, 7112.0, 7113.0, 7103.0, 7121.0, 7114.0, 7113.0, 7114.0, 7105.0, 7112.0, 7105.0, 7111.0, 7113.0, 7114.0, 7113.0, 7114.0, 7103.0, 7112.0, 7114.0, 7112.0, 7115.0, 7113.0, 7114.0, 7125.0, 7123.0, 7124.0, 7113.0, 7111.0, 7111.0, 7101.0, 7071.0, 7096.0, 7105.0, 6993.0, 7122.0, 7090.0, 7088.0, 7096.0, 7072.0, 7115.0, 7131.0, 7118.0, 7126.0, 7108.0, 7112.0, 7122.0, 7106.0, 7114.0, 7122.0, 7113.0, 7084.0, 7087.0, 7105.0, 7099.0, 7088.0, 7083.0, 7065.0, 7060.0, 7069.0, 7072.0, 7070.0, 7069.0, 7063.0, 7071.0, 7072.0, 7062.0, 7052.0, 7051.0, 7052.0, 7048.0, 7041.0, 7048.0, 7055.0, 7056.0, 6916.0, 6951.0, 7044.0, 6995.0, 7020.0, 7013.0, 6823.0, 6974.0, 7033.0, 6979.0, 6972.0, 6953.0, 6810.0, 6975.0, 7063.0, 7035.0, 7036.0, 7009.0, 6854.0, 6995.0, 7002.0, 6980.0, 6971.0, 6945.0, 6833.0, 6982.0, 7158.0, 7097.0, 7072.0, 7081.0, 7080.0, 7072.0, 7091.0, 7081.0, 7088.0, 7078.0, 7067.0, 7056.0, 7074.0, 7057.0, 7063.0, 7063.0, 7054.0, 7053.0, 7071.0, 7063.0, 7053.0, 7063.0, 7066.0, 6920.0, 7052.0, 7065.0, 7048.0, 7047.0, 7005.0, 6909.0, 7058.0, 7022.0, 7010.0, 7006.0, 7018.0, 7029.0, 6931.0, 7007.0, 7122.0, 7072.0, 7063.0, 7054.0, 6925.0, 6900.0, 7079.0, 7040.0, 7029.0, 7027.0, 6852.0, 7090.0, 7088.0, 7072.0, 7081.0, 7074.0, 7080.0, 7089.0, 7081.0, 7077.0, 7067.0, 7066.0, 7065.0, 7053.0, 7063.0, 7044.0, 7042.0, 7053.0, 7051.0, 7041.0, 7050.0, 7051.0, 7051.0, 7053.0, 7031.0, 7030.0, 7032.0, 7040.0, 7044.0, 7099.0, 7061.0, 7063.0, 7062.0, 7052.0, 7092.0, 7072.0, 7062.0, 7063.0, 7071.0, 7025.0, 7062.0, 7024.0, 7025.0, 7024.0, 7014.0, 7041.0, 7051.0, 7043.0, 7055.0, 7051.0, 7053.0, 7053.0, 7062.0, 7071.0, 7055.0, 7072.0, 7065.0, 7055.0, 7066.0, 7066.0, 7084.0, 7092.0, 7084.0, 7086.0, 7086.0, 7075.0, 7092.0, 7084.0, 7082.0, 6923.0, 7129.0, 7093.0, 7060.0, 7056.0, 6992.0, 6874.0, 6953.0, 6945.0, 6941.0, 6940.0, 6903.0, 6754.0, 7008.0, 7026.0, 7008.0, 7008.0, 6948.0, 6842.0, 6797.0, 7032.0, 6954.0, 6933.0, 6827.0, 6794.0, 7119.0, 7066.0, 7045.0, 7058.0, 7061.0, 7062.0, 7061.0, 7053.0, 7039.0, 7049.0, 7031.0, 7037.0, 7029.0, 7040.0, 7037.0, 7059.0, 7051.0, 7058.0, 7050.0, 7051.0, 7047.0, 7066.0, 7051.0, 7058.0, 6853.0, 7120.0, 7054.0, 7053.0, 7045.0, 6991.0, 6911.0, 7090.0, 7042.0, 7032.0, 7022.0, 7023.0, 7023.0, 6905.0, 7003.0, 7065.0, 7055.0, 7065.0, 7054.0, 6956.0, 6942.0, 7014.0, 7008.0, 6998.0, 6984.0],
