{
  "AcquisitionMatrixPE": 104,
  "AcquisitionNumber": 1,
  "AcquisitionTime": "20:29:53.497500",
  "BandwidthPerPixelPhaseEncode": 17.17,
  "BaseResolution": 104,
  "BodyPartExamined": "BRAIN",
  "ConsistencyInfo": "N4_VE11C_LATEST_20160120",
  "ConversionSoftware": "dcm2niix",
  "ConversionSoftwareVersion": "v1.0.20190410  GCC6.3.0",
  "DerivedVendorReportedEchoSpacing": 0.000560011,
  "DeviceSerialNumber": "166018",
  "DwellTime": 2.1e-06,
  "EchoTime": 0.035,
  "EchoTrainLength": 104,
  "EffectiveEchoSpacing": 0.000560011,
  "FlipAngle": 62,
  "ImageComments": "Unaliased_MB4_PE3_LB",
  "ImageOrientationPatientDICOM": [1, 0, 0, 0, 0.999998, -0.00174533],
  "ImageType": [
    "ORIGINAL",
    "PRIMARY",
    "M",
    "MB",
    "ND",
    "MOSAIC"
],
  "ImagingFrequency": 123.191,
  "InPlanePhaseEncodingDirectionDICOM": "COL",
  "InstitutionAddress": "Washington_Place_6_NYC_NYC_US_10003",
  "InstitutionName": "NYU_-_CBI",
  "InstitutionalDepartmentName": "Department",
  "MRAcquisitionType": "2D",
  "MagneticFieldStrength": 3,
  "Manufacturer": "Siemens",
  "ManufacturersModelName": "Prisma",
  "Modality": "MR",
  "MultibandAccelerationFactor": 4,
  "PartialFourier": 1,
  "PatientPosition": "HFS",
  "PercentPhaseFOV": 100,
  "PhaseEncodingDirection": "j-",
  "PhaseEncodingSteps": 104,
  "PhaseResolution": 1,
  "PixelBandwidth": 2290,
  "ProcedureStepDescription": "",
  "ProtocolName": "epi_MB4_2mm_motion",
  "PulseSequenceDetails": "%CustomerSeq%_cmrr_mbep2d_bold",
  "ReceiveCoilActiveElements": "HEA;HEP",
  "ReceiveCoilName": "Head_32",
  "ReconMatrixPE": 104,
  "RepetitionTime": 1.3,
  "SAR": 0.0790521,
  "ScanOptions": "FS",
  "ScanningSequence": "EP",
  "SequenceName": "epfid2d1_104",
  "SequenceVariant": "SK_SS",
  "SeriesDescription": "epi_MB4_2mm_motion",
  "SeriesNumber": 5,
  "ShimSetting": [239, -12736, -8425, 410, 64, -126, 26, 70],
  "SliceThickness": 2,
  "SliceTiming": [0, 0.5575, 1.1175, 0.3975, 0.9575, 0.24, 0.7975, 0.08, 0.6375, 1.1975, 0.4775, 1.0375, 0.32, 0.8775, 0.16, 0.7175, 0, 0.5575, 1.1175, 0.3975, 0.9575, 0.24, 0.7975, 0.08, 0.6375, 1.1975, 0.4775, 1.0375, 0.32, 0.8775, 0.16, 0.7175, 0, 0.5575, 1.1175, 0.3975, 0.9575, 0.24, 0.7975, 0.08, 0.6375, 1.1975, 0.4775, 1.0375, 0.32, 0.8775, 0.16, 0.7175, 0, 0.5575, 1.1175, 0.3975, 0.9575, 0.24, 0.7975, 0.08, 0.6375, 1.1975, 0.4775, 1.0375, 0.32, 0.8775, 0.16, 0.7175],
  "SoftwareVersions": "syngo_MR_E11",
  "SpacingBetweenSlices": 2,
  "StationName": "AWP166018",
  "TaskName": "TASK",
  "TotalReadoutTime": 0.0576811,
  "TxRefAmp": 251.769,
  "WipMemBlock": "8dc9a60c-7429-420b-aaa8-ed5f0e4e653f||Sequence: R016 ve11c/master r/8780670; Nov 27 2017 15:05:12 by eja",
  "dcmmeta_affine": [
    [-2.0, 0.0, 0.0, 104.0],
    [0.0, 1.9999969005584717, -0.003490656614303589, -80.63046264648438],
    [0.0, 0.003490656614303589, 1.9999969005584717, -26.745100021362305],
    [0.0, 0.0, 0.0, 1.0]
],
  "dcmmeta_reorient_transform": [
    [0.0, -1.0, 0.0, 103.0],
    [1.0, 0.0, 0.0, 0.0],
    [0.0, 0.0, 1.0, 0.0],
    [0.0, 0.0, 0.0, 1.0]
],
  "dcmmeta_shape": [104, 104, 64, 324],
  "dcmmeta_slice_dim": 2,
  "dcmmeta_version": 0.6,
  "global": {
    "const": {
      "AccessionNumber": "jx0tkwxr",
      "AcquisitionMatrix": [104, 0, 0, 104],
      "AngioFlag": "N",
      "BitsAllocated": 16,
      "BitsStored": 16,
      "BodyPartExamined": "BRAIN",
      "Columns": 832,
      "EchoNumbers": 1,
      "EchoTime": 35.0,
      "EchoTrainLength": 104,
      "FlipAngle": 62.0,
      "HighBit": 15,
      "ImageOrientationPatient": [1.0, 0.0, 0.0, 0.0, 0.99999847691345, -0.0017453282742],
      "ImagePositionPatient": [-832.0, -853.36811183557, -25.114962605248],
      "ImageType": [
        "ORIGINAL",
        "PRIMARY",
        "M",
        "MB",
        "ND",
        "MOSAIC"
],
      "ImagedNucleus": "1H",
      "ImagingFrequency": 123.19098,
      "InPlanePhaseEncodingDirection": "COL",
      "MRAcquisitionType": "2D",
      "MagneticFieldStrength": 3.0,
      "Manufacturer": "SIEMENS",
      "ManufacturerModelName": "Prisma",
      "Modality": "MR",
      "NumberOfAverages": 1.0,
      "NumberOfPhaseEncodingSteps": 104,
      "PercentPhaseFieldOfView": 100.0,
      "PercentSampling": 100.0,
      "PerformedProcedureStepStartTime": "195438.892000",
      "PhotometricInterpretation": "MONOCHROME2",
      "PixelBandwidth": 2290.0,
      "PixelRepresentation": 0,
      "PixelSpacing": [2.0, 2.0],
      "ProtocolName": "epi_MB4_2mm_motion",
      "RepetitionTime": 1300.0,
      "Rows": 832,
      "SAR": 0.07905208035248,
      "SamplesPerPixel": 1,
      "ScanOptions": "FS",
      "ScanningSequence": "EP",
      "SequenceName": "epfid2d1_104",
      "SequenceVariant": [
        "SK",
        "SS"
],
      "SeriesDescription": "epi_MB4_2mm_motion",
      "SeriesNumber": 5,
      "SeriesTime": "203013.373000",
      "SliceLocation": -26.604331846861,
      "SliceThickness": 2.0,
      "SmallestImagePixelValue": 0,
      "SoftwareVersions": "syngo MR E11",
      "SpacingBetweenSlices": 1.9999999883661,
      "SpecificCharacterSet": "ISO_IR 100",
      "StudyID": "1",
      "StudyTime": "195438.766000",
      "TransmitCoilName": "Body",
      "VariableFlipAngleFlag": "N",
      "WindowCenterWidthExplanation": "Algo1",
      "dBdt": 0.0},
    "slices": {}
  },
  "time": {
    "samples": {
      "AcquisitionNumber": [1, 2, 3, 4, 5, 6, 7, 8, 9, 10, 11, 12, 13, 14, 15, 16, 17, 18, 19, 20, 21, 22, 23, 24, 25, 26, 27, 28, 29, 30, 31, 32, 33, 34, 35, 36, 37, 38, 39, 40, 41, 42, 43, 44, 45, 46, 47, 48, 49, 50, 51, 52, 53, 54, 55, 56, 57, 58, 59, 60, 61, 62, 63, 64, 65, 66, 67, 68, 69, 70, 71, 72, 73, 74, 75, 76, 77, 78, 79, 80, 81, 82, 83, 84, 85, 86, 87, 88, 89, 90, 91, 92, 93, 94, 95, 96, 97, 98, 99, 100, 101, 102, 103, 104, 105, 106, 107, 108, 109, 110, 111, 112, 113, 114, 115, 116, 117, 118, 119, 120, 121, 122, 123, 124, 125, 126, 127, 128, 129, 130, 131, 132, 133, 134, 135, 136, 137, 138, 139, 140, 141, 142, 143, 144, 145, 146, 147, 148, 149, 150, 151, 152, 153, 154, 155, 156, 157, 158, 159, 160, 161, 162, 163, 164, 165, 166, 167, 168, 169, 170, 171, 172, 173, 174, 175, 176, 177, 178, 179, 180, 181, 182, 183, 184, 185, 186, 187, 188, 189, 190, 191, 192, 193, 194, 195, 196, 197, 198, 199, 200, 201, 202, 203, 204, 205, 206, 207, 208, 209, 210, 211, 212, 213, 214, 215, 216, 217, 218, 219, 220, 221, 222, 223, 224, 225, 226, 227, 228, 229, 230, 231, 232, 233, 234, 235, 236, 237, 238, 239, 240, 241, 242, 243, 244, 245, 246, 247, 248, 249, 250, 251, 252, 253, 254, 255, 256, 257, 258, 259, 260, 261, 262, 263, 264, 265, 266, 267, 268, 269, 270, 271, 272, 273, 274, 275, 276, 277, 278, 279, 280, 281, 282, 283, 284, 285, 286, 287, 288, 289, 290, 291, 292, 293, 294, 295, 296, 297, 298, 299, 300, 301, 302, 303, 304, 305, 306, 307, 308, 309, 310, 311, 312, 313, 314, 315, 316, 317, 318, 319, 320, 321, 322, 323, 324],
      "AcquisitionTime": ["202953.497500", "202954.797500", "202956.097500", "202957.397500", "202958.697500", "202959.997500", "203001.297500", "203002.597500", "203003.897500", "203005.197500", "203006.497500", "203007.797500", "203009.097500", "203010.397500", "203011.697500", "203012.997500", "203014.297500", "203015.597500", "203016.897500", "203018.197500", "203019.497500", "203020.797500", "203022.097500", "203023.397500", "203024.697500", "203025.997500", "203027.297500", "203028.597500", "203029.897500", "203031.197500", "203032.497500", "203033.797500", "203035.097500", "203036.397500", "203037.697500", "203038.997500", "203040.297500", "203041.597500", "203042.897500", "203044.197500", "203045.497500", "203046.797500", "203048.097500", "203049.397500", "203050.697500", "203051.997500", "203053.297500", "203054.597500", "203055.897500", "203057.197500", "203058.497500", "203059.797500", "203101.097500", "203102.397500", "203103.697500", "203104.997500", "203106.297500", "203107.597500", "203108.897500", "203110.197500", "203111.497500", "203112.797500", "203114.097500", "203115.397500", "203116.697500", "203117.997500", "203119.297500", "203120.597500", "203121.897500", "203123.197500", "203124.497500", "203125.797500", "203127.097500", "203128.397500", "203129.697500", "203130.997500", "203132.297500", "203133.597500", "203134.897500", "203136.197500", "203137.497500", "203138.797500", "203140.097500", "203141.397500", "203142.697500", "203143.997500", "203145.297500", "203146.597500", "203147.897500", "203149.197500", "203150.497500", "203151.797500", "203153.097500", "203154.397500", "203155.697500", "203156.997500", "203158.297500", "203159.597500", "203200.897500", "203202.197500", "203203.497500", "203204.797500", "203206.097500", "203207.397500", "203208.697500", "203209.997500", "203211.297500", "203212.597500", "203213.897500", "203215.197500", "203216.497500", "203217.797500", "203219.097500", "203220.397500", "203221.697500", "203222.997500", "203224.297500", "203225.597500", "203226.897500", "203228.197500", "203229.497500", "203230.797500", "203232.097500", "203233.397500", "203234.697500", "203235.997500", "203237.297500", "203238.597500", "203239.897500", "203241.197500", "203242.497500", "203243.797500", "203245.097500", "203246.397500", "203247.697500", "203248.997500", "203250.297500", "203251.597500", "203252.897500", "203254.197500", "203255.497500", "203256.797500", "203258.097500", "203259.397500", "203300.697500", "203301.997500", "203303.297500", "203304.597500", "203305.897500", "203307.197500", "203308.497500", "203309.797500", "203311.097500", "203312.397500", "203313.697500", "203314.997500", "203316.297500", "203317.597500", "203318.897500", "203320.197500", "203321.497500", "203322.797500", "203324.097500", "203325.397500", "203326.697500", "203327.997500", "203329.297500", "203330.597500", "203331.897500", "203333.197500", "203334.497500", "203335.797500", "203337.097500", "203338.397500", "203339.697500", "203340.997500", "203342.297500", "203343.597500", "203344.897500", "203346.197500", "203347.497500", "203348.797500", "203350.097500", "203351.397500", "203352.697500", "203353.997500", "203355.297500", "203356.597500", "203357.897500", "203359.197500", "203400.497500", "203401.797500", "203403.097500", "203404.397500", "203405.697500", "203406.997500", "203408.297500", "203409.597500", "203410.897500", "203412.197500", "203413.497500", "203414.797500", "203416.097500", "203417.397500", "203418.697500", "203419.997500", "203421.297500", "203422.597500", "203423.897500", "203425.197500", "203426.497500", "203427.797500", "203429.097500", "203430.397500", "203431.697500", "203432.997500", "203434.297500", "203435.597500", "203436.897500", "203438.197500", "203439.497500", "203440.797500", "203442.097500", "203443.397500", "203444.697500", "203445.997500", "203447.297500", "203448.597500", "203449.897500", "203451.197500", "203452.497500", "203453.797500", "203455.097500", "203456.397500", "203457.697500", "203458.997500", "203500.297500", "203501.597500", "203502.897500", "203504.197500", "203505.497500", "203506.797500", "203508.097500", "203509.397500", "203510.697500", "203511.997500", "203513.297500", "203514.597500", "203515.897500", "203517.197500", "203518.497500", "203519.797500", "203521.097500", "203522.397500", "203523.697500", "203524.997500", "203526.297500", "203527.597500", "203528.897500", "203530.197500", "203531.497500", "203532.797500", "203534.097500", "203535.397500", "203536.697500", "203537.997500", "203539.297500", "203540.597500", "203541.897500", "203543.197500", "203544.497500", "203545.797500", "203547.097500", "203548.397500", "203549.697500", "203550.997500", "203552.297500", "203553.597500", "203554.897500", "203556.197500", "203557.497500", "203558.797500", "203600.097500", "203601.397500", "203602.697500", "203603.997500", "203605.297500", "203606.597500", "203607.897500", "203609.197500", "203610.497500", "203611.797500", "203613.097500", "203614.397500", "203615.697500", "203616.997500", "203618.297500", "203619.597500", "203620.897500", "203622.197500", "203623.497500", "203624.797500", "203626.097500", "203627.397500", "203628.697500", "203629.997500", "203631.297500", "203632.597500", "203633.897500", "203635.197500", "203636.497500", "203637.797500", "203639.097500", "203640.397500", "203641.697500", "203642.997500", "203644.297500", "203645.597500", "203646.897500", "203648.197500", "203649.497500", "203650.797500", "203652.097500", "203653.397500"],
      "ContentTime": ["203013.376000", "203013.380000", "203018.349000", "203018.352000", "203018.355000", "203018.358000", "203018.361000", "203018.363000", "203018.366000", "203018.369000", "203018.376000", "203018.379000", "203023.349000", "203023.359000", "203023.362000", "203023.365000", "203023.375000", "203023.378000", "203023.381000", "203023.384000", "203023.387000", "203023.390000", "203028.349000", "203028.352000", "203028.355000", "203028.358000", "203033.350000", "203033.353000", "203033.356000", "203033.359000", "203038.349000", "203038.352000", "203038.355000", "203038.358000", "203043.349000", "203043.352000", "203043.355000", "203048.350000", "203048.353000", "203048.356000", "203048.359000", "203053.349000", "203053.352000", "203053.355000", "203053.358000", "203058.349000", "203058.352000", "203058.355000", "203058.358000", "203103.349000", "203103.352000", "203103.355000", "203103.358000", "203108.350000", "203108.353000", "203108.356000", "203108.359000", "203113.349000", "203113.352000", "203113.355000", "203118.349000", "203118.352000", "203118.355000", "203118.358000", "203123.350000", "203123.353000", "203123.356000", "203123.359000", "203128.349000", "203128.352000", "203128.355000", "203128.358000", "203133.349000", "203133.352000", "203133.355000", "203133.358000", "203138.349000", "203138.352000", "203138.355000", "203138.358000", "203143.350000", "203143.354000", "203143.357000", "203143.360000", "203148.349000", "203148.352000", "203148.355000", "203153.349000", "203153.352000", "203153.355000", "203153.358000", "203158.350000", "203158.353000", "203158.356000", "203158.359000", "203203.349000", "203203.352000", "203203.355000", "203203.358000", "203208.349000", "203208.352000", "203208.355000", "203208.358000", "203213.349000", "203213.352000", "203213.355000", "203213.358000", "203218.350000", "203218.353000", "203218.356000", "203223.349000", "203223.352000", "203223.355000", "203223.358000", "203228.349000", "203228.352000", "203228.355000", "203228.358000", "203233.350000", "203233.353000", "203233.356000", "203233.359000", "203238.349000", "203238.352000", "203238.355000", "203238.358000", "203243.349000", "203243.352000", "203243.355000", "203243.358000", "203248.349000", "203248.352000", "203248.355000", "203248.358000", "203253.350000", "203253.353000", "203253.356000", "203258.349000", "203258.352000", "203258.355000", "203258.358000", "203303.349000", "203303.352000", "203303.355000", "203303.358000", "203308.350000", "203308.353000", "203308.356000", "203308.359000", "203313.349000", "203313.352000", "203313.355000", "203313.358000", "203318.349000", "203318.352000", "203318.355000", "203318.358000", "203323.349000", "203323.352000", "203323.355000", "203328.350000", "203328.353000", "203328.356000", "203328.359000", "203333.349000", "203333.352000", "203333.355000", "203333.358000", "203338.349000", "203338.352000", "203338.355000", "203338.358000", "203343.350000", "203343.353000", "203343.356000", "203343.359000", "203348.349000", "203348.352000", "203348.355000", "203348.358000", "203353.349000", "203353.352000", "203353.355000", "203353.358000", "203358.368000", "203358.371000", "203358.374000", "203403.350000", "203403.353000", "203403.356000", "203403.359000", "203408.349000", "203408.352000", "203408.355000", "203408.358000", "203413.349000", "203413.352000", "203413.355000", "203413.358000", "203418.350000", "203418.353000", "203418.356000", "203418.359000", "203423.349000", "203423.352000", "203423.355000", "203423.358000", "203428.349000", "203428.352000", "203428.355000", "203433.349000", "203433.352000", "203433.355000", "203433.358000", "203438.350000", "203438.353000", "203438.356000", "203438.359000", "203443.349000", "203443.352000", "203443.355000", "203443.358000", "203448.349000", "203448.352000", "203448.355000", "203448.358000", "203453.350000", "203453.353000", "203453.356000", "203453.359000", "203458.349000", "203458.352000", "203458.355000", "203458.358000", "203503.349000", "203503.352000", "203503.355000", "203508.349000", "203508.352000", "203508.355000", "203508.358000", "203513.350000", "203513.353000", "203513.356000", "203513.359000", "203518.349000", "203518.352000", "203518.355000", "203518.358000", "203523.349000", "203523.352000", "203523.355000", "203523.358000", "203528.350000", "203528.353000", "203528.356000", "203528.359000", "203533.349000", "203533.352000", "203533.355000", "203538.349000", "203538.352000", "203538.355000", "203538.358000", "203543.349000", "203543.352000", "203543.355000", "203543.358000", "203548.350000", "203548.353000", "203548.356000", "203548.359000", "203553.349000", "203553.352000", "203553.355000", "203553.358000", "203558.349000", "203558.352000", "203558.355000", "203558.358000", "203603.350000", "203603.353000", "203603.356000", "203603.359000", "203608.349000", "203608.352000", "203608.355000", "203613.349000", "203613.352000", "203613.355000", "203613.358000", "203618.349000", "203618.352000", "203618.355000", "203618.358000", "203623.350000", "203623.353000", "203623.356000", "203623.359000", "203628.349000", "203628.352000", "203628.355000", "203628.358000", "203633.349000", "203633.352000", "203633.355000", "203633.358000", "203638.350000", "203638.353000", "203638.356000", "203643.349000", "203643.352000", "203643.355000", "203643.358000", "203648.349000", "203648.352000", "203648.355000", "203648.358000", "203653.349000", "203653.352000", "203653.355000", "203653.358000", "203655.375000", "203655.379000"],
      "InstanceCreationTime": ["203013.376000", "203013.380000", "203018.349000", "203018.352000", "203018.355000", "203018.358000", "203018.361000", "203018.363000", "203018.366000", "203018.369000", "203018.376000", "203018.379000", "203023.349000", "203023.359000", "203023.362000", "203023.365000", "203023.375000", "203023.378000", "203023.381000", "203023.384000", "203023.387000", "203023.390000", "203028.349000", "203028.352000", "203028.355000", "203028.358000", "203033.350000", "203033.353000", "203033.356000", "203033.359000", "203038.349000", "203038.352000", "203038.355000", "203038.358000", "203043.349000", "203043.352000", "203043.355000", "203048.350000", "203048.353000", "203048.356000", "203048.359000", "203053.349000", "203053.352000", "203053.355000", "203053.358000", "203058.349000", "203058.352000", "203058.355000", "203058.358000", "203103.349000", "203103.352000", "203103.355000", "203103.358000", "203108.350000", "203108.353000", "203108.356000", "203108.359000", "203113.349000", "203113.352000", "203113.355000", "203118.349000", "203118.352000", "203118.355000", "203118.358000", "203123.350000", "203123.353000", "203123.356000", "203123.359000", "203128.349000", "203128.352000", "203128.355000", "203128.358000", "203133.349000", "203133.352000", "203133.355000", "203133.358000", "203138.349000", "203138.352000", "203138.355000", "203138.358000", "203143.350000", "203143.354000", "203143.357000", "203143.360000", "203148.349000", "203148.352000", "203148.355000", "203153.349000", "203153.352000", "203153.355000", "203153.358000", "203158.350000", "203158.353000", "203158.356000", "203158.359000", "203203.349000", "203203.352000", "203203.355000", "203203.358000", "203208.349000", "203208.352000", "203208.355000", "203208.358000", "203213.349000", "203213.352000", "203213.355000", "203213.358000", "203218.350000", "203218.353000", "203218.356000", "203223.349000", "203223.352000", "203223.355000", "203223.358000", "203228.349000", "203228.352000", "203228.355000", "203228.358000", "203233.350000", "203233.353000", "203233.356000", "203233.359000", "203238.349000", "203238.352000", "203238.355000", "203238.358000", "203243.349000", "203243.352000", "203243.355000", "203243.358000", "203248.349000", "203248.352000", "203248.355000", "203248.358000", "203253.350000", "203253.353000", "203253.356000", "203258.349000", "203258.352000", "203258.355000", "203258.358000", "203303.349000", "203303.352000", "203303.355000", "203303.358000", "203308.350000", "203308.353000", "203308.356000", "203308.359000", "203313.349000", "203313.352000", "203313.355000", "203313.358000", "203318.349000", "203318.352000", "203318.355000", "203318.358000", "203323.349000", "203323.352000", "203323.355000", "203328.350000", "203328.353000", "203328.356000", "203328.359000", "203333.349000", "203333.352000", "203333.355000", "203333.358000", "203338.349000", "203338.352000", "203338.355000", "203338.358000", "203343.350000", "203343.353000", "203343.356000", "203343.359000", "203348.349000", "203348.352000", "203348.355000", "203348.358000", "203353.349000", "203353.352000", "203353.355000", "203353.358000", "203358.368000", "203358.371000", "203358.374000", "203403.350000", "203403.353000", "203403.356000", "203403.359000", "203408.349000", "203408.352000", "203408.355000", "203408.358000", "203413.349000", "203413.352000", "203413.355000", "203413.358000", "203418.350000", "203418.353000", "203418.356000", "203418.359000", "203423.349000", "203423.352000", "203423.355000", "203423.358000", "203428.349000", "203428.352000", "203428.355000", "203433.349000", "203433.352000", "203433.355000", "203433.358000", "203438.350000", "203438.353000", "203438.356000", "203438.359000", "203443.349000", "203443.352000", "203443.355000", "203443.358000", "203448.349000", "203448.352000", "203448.355000", "203448.358000", "203453.350000", "203453.353000", "203453.356000", "203453.359000", "203458.349000", "203458.352000", "203458.355000", "203458.358000", "203503.349000", "203503.352000", "203503.355000", "203508.349000", "203508.352000", "203508.355000", "203508.358000", "203513.350000", "203513.353000", "203513.356000", "203513.359000", "203518.349000", "203518.352000", "203518.355000", "203518.358000", "203523.349000", "203523.352000", "203523.355000", "203523.358000", "203528.350000", "203528.353000", "203528.356000", "203528.359000", "203533.349000", "203533.352000", "203533.355000", "203538.349000", "203538.352000", "203538.355000", "203538.358000", "203543.349000", "203543.352000", "203543.355000", "203543.358000", "203548.350000", "203548.353000", "203548.356000", "203548.359000", "203553.349000", "203553.352000", "203553.355000", "203553.358000", "203558.349000", "203558.352000", "203558.355000", "203558.358000", "203603.350000", "203603.353000", "203603.356000", "203603.359000", "203608.349000", "203608.352000", "203608.355000", "203613.349000", "203613.352000", "203613.355000", "203613.358000", "203618.349000", "203618.352000", "203618.355000", "203618.358000", "203623.350000", "203623.353000", "203623.356000", "203623.359000", "203628.349000", "203628.352000", "203628.355000", "203628.358000", "203633.349000", "203633.352000", "203633.355000", "203633.358000", "203638.350000", "203638.353000", "203638.356000", "203643.349000", "203643.352000", "203643.355000", "203643.358000", "203648.349000", "203648.352000", "203648.355000", "203648.358000", "203653.349000", "203653.352000", "203653.355000", "203653.358000", "203655.375000", "203655.379000"],
      "InstanceNumber": [1, 2, 3, 4, 5, 6, 7, 8, 9, 10, 11, 12, 13, 14, 15, 16, 17, 18, 19, 20, 21, 22, 23, 24, 25, 26, 27, 28, 29, 30, 31, 32, 33, 34, 35, 36, 37, 38, 39, 40, 41, 42, 43, 44, 45, 46, 47, 48, 49, 50, 51, 52, 53, 54, 55, 56, 57, 58, 59, 60, 61, 62, 63, 64, 65, 66, 67, 68, 69, 70, 71, 72, 73, 74, 75, 76, 77, 78, 79, 80, 81, 82, 83, 84, 85, 86, 87, 88, 89, 90, 91, 92, 93, 94, 95, 96, 97, 98, 99, 100, 101, 102, 103, 104, 105, 106, 107, 108, 109, 110, 111, 112, 113, 114, 115, 116, 117, 118, 119, 120, 121, 122, 123, 124, 125, 126, 127, 128, 129, 130, 131, 132, 133, 134, 135, 136, 137, 138, 139, 140, 141, 142, 143, 144, 145, 146, 147, 148, 149, 150, 151, 152, 153, 154, 155, 156, 157, 158, 159, 160, 161, 162, 163, 164, 165, 166, 167, 168, 169, 170, 171, 172, 173, 174, 175, 176, 177, 178, 179, 180, 181, 182, 183, 184, 185, 186, 187, 188, 189, 190, 191, 192, 193, 194, 195, 196, 197, 198, 199, 200, 201, 202, 203, 204, 205, 206, 207, 208, 209, 210, 211, 212, 213, 214, 215, 216, 217, 218, 219, 220, 221, 222, 223, 224, 225, 226, 227, 228, 229, 230, 231, 232, 233, 234, 235, 236, 237, 238, 239, 240, 241, 242, 243, 244, 245, 246, 247, 248, 249, 250, 251, 252, 253, 254, 255, 256, 257, 258, 259, 260, 261, 262, 263, 264, 265, 266, 267, 268, 269, 270, 271, 272, 273, 274, 275, 276, 277, 278, 279, 280, 281, 282, 283, 284, 285, 286, 287, 288, 289, 290, 291, 292, 293, 294, 295, 296, 297, 298, 299, 300, 301, 302, 303, 304, 305, 306, 307, 308, 309, 310, 311, 312, 313, 314, 315, 316, 317, 318, 319, 320, 321, 322, 323, 324],
      "LargestImagePixelValue": [21372, 20770, 20452, 20382, 20349, 20311, 20260, 20368, 20396, 20288, 20439, 20224, 20347, 20200, 20536, 20471, 20486, 20487, 20529, 20280, 20443, 20449, 20494, 20579, 20556, 20766, 20720, 20702, 20653, 20707, 20644, 20591, 20507, 20739, 20675, 20723, 20607, 20567, 20454, 20394, 20569, 20686, 20486, 20571, 20533, 20679, 21281, 20306, 20114, 21440, 19950, 21308, 20020, 20448, 19958, 21250, 20335, 19971, 21107, 19700, 19990, 19888, 21118, 20803, 20148, 20008, 20171, 19814, 19954, 19902, 19909, 19911, 19965, 19916, 19983, 20136, 20088, 19912, 20115, 20108, 19945, 20219, 20005, 20235, 20313, 20351, 20055, 20253, 20107, 20040, 22346, 19612, 22156, 21432, 21347, 20307, 21872, 20596, 21182, 21943, 21840, 20157, 21482, 21065, 20020, 20318, 20991, 20155, 20839, 20424, 20504, 22227, 21796, 19940, 21070, 20829, 20628, 20729, 20826, 21074, 20971, 20962, 20839, 20968, 20755, 20929, 20750, 20730, 20551, 20941, 20527, 20714, 20643, 20633, 20517, 20608, 20784, 20632, 20899, 22197, 22198, 22157, 22265, 22190, 20979, 19923, 22207, 21408, 24207, 20502, 20693, 22218, 21994, 20707, 19602, 22049, 22013, 22839, 21278, 19416, 22507, 20573, 19885, 19939, 19634, 20387, 20021, 20362, 20241, 20264, 20081, 19788, 19879, 20299, 20055, 20230, 20309, 20446, 20157, 20337, 20505, 20282, 20241, 20261, 20368, 20496, 20489, 20670, 21227, 21139, 20509, 20727, 21268, 20760, 20752, 20158, 20358, 20783, 20686, 20255, 20301, 20810, 19814, 20469, 20596, 19625, 20467, 20418, 19806, 19812, 20054, 20401, 20230, 20303, 20114, 20633, 20410, 20584, 20460, 20744, 20754, 20510, 20641, 20705, 20767, 20889, 20824, 20663, 20530, 20655, 20600, 20774, 20738, 20555, 20381, 21816, 21486, 20616, 19692, 21798, 21778, 20667, 21549, 21652, 21124, 21385, 21429, 20524, 21001, 21327, 21587, 21332, 20052, 20084, 22368, 21740, 20985, 21189, 21291, 20837, 20169, 20217, 20106, 20281, 20491, 20575, 20386, 20384, 20488, 20391, 20769, 20690, 20785, 20792, 20467, 20560, 20334, 20537, 20293, 20383, 20297, 20593, 20473, 20588, 21230, 20866, 21180, 22174, 20645, 20389, 21716, 23199, 21132, 20196, 20428, 21544, 20697, 20405, 20021, 21293, 20565, 21220, 20166, 21179, 21327, 20787, 21299, 21131, 21440, 21021, 20841, 21023, 20959, 20959, 20952, 20834, 20918, 20916, 20895, 21075, 20916, 21065, 21087, 21181],
      "WindowCenter": [6605.0, 6566.0, 6542.0, 6538.0, 6528.0, 6526.0, 6529.0, 6528.0, 6539.0, 6530.0, 6538.0, 6527.0, 6524.0, 6517.0, 6534.0, 6537.0, 6538.0, 6539.0, 6539.0, 6529.0, 6528.0, 6537.0, 6538.0, 6550.0, 6548.0, 6548.0, 6547.0, 6547.0, 6547.0, 6546.0, 6547.0, 6538.0, 6538.0, 6537.0, 6546.0, 6548.0, 6539.0, 6540.0, 6538.0, 6538.0, 6537.0, 6546.0, 6551.0, 6562.0, 6564.0, 6571.0, 6571.0, 6542.0, 6532.0, 6556.0, 6531.0, 6566.0, 6529.0, 6539.0, 6518.0, 6555.0, 6534.0, 6518.0, 6544.0, 6518.0, 6508.0, 6520.0, 6556.0, 6536.0, 6530.0, 6530.0, 6540.0, 6532.0, 6532.0, 6531.0, 6523.0, 6521.0, 6520.0, 6520.0, 6518.0, 6516.0, 6515.0, 6506.0, 6515.0, 6516.0, 6517.0, 6528.0, 6531.0, 6530.0, 6529.0, 6527.0, 6516.0, 6517.0, 6525.0, 6485.0, 6524.0, 6351.0, 6458.0, 6526.0, 6516.0, 6297.0, 6562.0, 6553.0, 6442.0, 6473.0, 6474.0, 6302.0, 6595.0, 6354.0, 6482.0, 6276.0, 6596.0, 6343.0, 6467.0, 6452.0, 6522.0, 6410.0, 6511.0, 6333.0, 6569.0, 6533.0, 6524.0, 6534.0, 6532.0, 6532.0, 6529.0, 6530.0, 6519.0, 6527.0, 6530.0, 6531.0, 6543.0, 6542.0, 6533.0, 6533.0, 6523.0, 6522.0, 6519.0, 6509.0, 6520.0, 6511.0, 6519.0, 6507.0, 6479.0, 6519.0, 6518.0, 6533.0, 6540.0, 6468.0, 6458.0, 6357.0, 6481.0, 6379.0, 6551.0, 6465.0, 6467.0, 6532.0, 6442.0, 6529.0, 6413.0, 6560.0, 6455.0, 6576.0, 6523.0, 6399.0, 6544.0, 6466.0, 6496.0, 6496.0, 6488.0, 6505.0, 6498.0, 6510.0, 6510.0, 6510.0, 6499.0, 6497.0, 6488.0, 6497.0, 6510.0, 6524.0, 6535.0, 6524.0, 6509.0, 6507.0, 6507.0, 6497.0, 6496.0, 6485.0, 6494.0, 6504.0, 6518.0, 6529.0, 6527.0, 6514.0, 6497.0, 6503.0, 6511.0, 6493.0, 6508.0, 6499.0, 6510.0, 6519.0, 6518.0, 6499.0, 6496.0, 6508.0, 6490.0, 6520.0, 6512.0, 6506.0, 6523.0, 6498.0, 6491.0, 6489.0, 6489.0, 6508.0, 6511.0, 6510.0, 6524.0, 6539.0, 6538.0, 6537.0, 6514.0, 6522.0, 6521.0, 6501.0, 6510.0, 6509.0, 6511.0, 6510.0, 6510.0, 6510.0, 6499.0, 6508.0, 6510.0, 6521.0, 6533.0, 6439.0, 6403.0, 6561.0, 6453.0, 6478.0, 6291.0, 6610.0, 6375.0, 6477.0, 6469.0, 6571.0, 6547.0, 6509.0, 6376.0, 6454.0, 6525.0, 6556.0, 6535.0, 6492.0, 6445.0, 6359.0, 6601.0, 6544.0, 6522.0, 6521.0, 6532.0, 6523.0, 6528.0, 6527.0, 6530.0, 6542.0, 6555.0, 6556.0, 6542.0, 6519.0, 6504.0, 6492.0, 6499.0, 6497.0, 6497.0, 6508.0, 6499.0, 6502.0, 6502.0, 6510.0, 6503.0, 6515.0, 6516.0, 6515.0, 6515.0, 6512.0, 6468.0, 6389.0, 6455.0, 6431.0, 6389.0, 6428.0, 6320.0, 6604.0, 6289.0, 6501.0, 6275.0, 6544.0, 6287.0, 6469.0, 6302.0, 6456.0, 6382.0, 6465.0, 6487.0, 6390.0, 6543.0, 6430.0, 6526.0, 6449.0, 6556.0, 6531.0, 6544.0, 6556.0, 6548.0, 6537.0, 6535.0, 6525.0, 6524.0, 6522.0, 6520.0, 6520.0, 6521.0, 6531.0, 6532.0, 6531.0],
