{
  "AcquisitionMatrixPE": 104,
  "AcquisitionNumber": 1,
  "AcquisitionTime": "20:04:48.370000",
  "BandwidthPerPixelPhaseEncode": 17.17,
  "BaseResolution": 104,
  "BodyPartExamined": "BRAIN",
  "ConsistencyInfo": "N4_VE11C_LATEST_20160120",
  "ConversionSoftware": "dcm2niix",
  "ConversionSoftwareVersion": "v1.0.20190410  GCC6.3.0",
  "DerivedVendorReportedEchoSpacing": 0.000560011,
  "DeviceSerialNumber": "166018",
  "DwellTime": 2.1e-06,
  "EchoTime": 0.035,
  "EchoTrainLength": 104,
  "EffectiveEchoSpacing": 0.000560011,
  "FlipAngle": 62,
  "ImageComments": "Unaliased_MB4_PE3_LB",
  "ImageOrientationPatientDICOM": [1, 0, 0, 0, 0.999998, 0.00174533],
  "ImageType": [
    "ORIGINAL",
    "PRIMARY",
    "M",
    "MB",
    "ND",
    "MOSAIC"
],
  "ImagingFrequency": 123.191,
  "InPlanePhaseEncodingDirectionDICOM": "COL",
  "InstitutionAddress": "Washington_Place_6_NYC_NYC_US_10003",
  "InstitutionName": "NYU_-_CBI",
  "InstitutionalDepartmentName": "Department",
  "MRAcquisitionType": "2D",
  "MagneticFieldStrength": 3,
  "Manufacturer": "Siemens",
  "ManufacturersModelName": "Prisma",
  "Modality": "MR",
  "MultibandAccelerationFactor": 4,
  "PartialFourier": 1,
  "PatientPosition": "HFS",
  "PercentPhaseFOV": 100,
  "PhaseEncodingDirection": "j-",
  "PhaseEncodingSteps": 104,
  "PhaseResolution": 1,
  "PixelBandwidth": 2290,
  "ProcedureStepDescription": "",
  "ProtocolName": "epi_MB4_2mm_motion",
  "PulseSequenceDetails": "%CustomerSeq%_cmrr_mbep2d_bold",
  "ReceiveCoilActiveElements": "HEA;HEP",
  "ReceiveCoilName": "Head_32",
  "ReconMatrixPE": 104,
  "RepetitionTime": 1.3,
  "SAR": 0.0922906,
  "ScanOptions": "FS",
  "ScanningSequence": "EP",
  "SequenceName": "epfid2d1_104",
  "SequenceVariant": "SK_SS",
  "SeriesDescription": "epi_MB4_2mm_motion",
  "SeriesNumber": 5,
  "ShimSetting": [274, -12727, -8410, 390, 49, -124, -127, -15],
  "SliceThickness": 2,
  "SliceTiming": [0, 0.56, 1.12, 0.4, 0.96, 0.24, 0.8, 0.08, 0.64, 1.2, 0.48, 1.04, 0.32, 0.88, 0.16, 0.72, 0, 0.56, 1.12, 0.4, 0.96, 0.24, 0.8, 0.08, 0.64, 1.2, 0.48, 1.04, 0.32, 0.88, 0.16, 0.72, 0, 0.56, 1.12, 0.4, 0.96, 0.24, 0.8, 0.08, 0.64, 1.2, 0.48, 1.04, 0.32, 0.88, 0.16, 0.72, 0, 0.56, 1.12, 0.4, 0.96, 0.24, 0.8, 0.08, 0.64, 1.2, 0.48, 1.04, 0.32, 0.88, 0.16, 0.72],
  "SoftwareVersions": "syngo_MR_E11",
  "SpacingBetweenSlices": 2,
  "StationName": "AWP166018",
  "TaskName": "TASK",
  "TotalReadoutTime": 0.0576811,
  "TxRefAmp": 273.05,
  "WipMemBlock": "85c0d0a9-f055-4a53-a980-2b754c625e42||Sequence: R016 ve11c/master r/8780670; Nov 27 2017 15:05:12 by eja",
  "dcmmeta_affine": [
    [-2.0, 0.0, 0.0, 104.0],
    [0.0, 1.9999969005584717, 0.003490656381472945, -93.18772888183594],
    [0.0, -0.003490656614303589, 1.9999969005584717, -46.12881088256836],
    [0.0, 0.0, 0.0, 1.0]
],
  "dcmmeta_reorient_transform": [
    [0.0, -1.0, 0.0, 103.0],
    [1.0, 0.0, 0.0, 0.0],
    [0.0, 0.0, 1.0, 0.0],
    [0.0, 0.0, 0.0, 1.0]
],
  "dcmmeta_shape": [104, 104, 64, 324],
  "dcmmeta_slice_dim": 2,
  "dcmmeta_version": 0.6,
  "global": {
    "const": {
      "AccessionNumber": "jx25v39n",
      "AcquisitionMatrix": [104, 0, 0, 104],
      "AngioFlag": "N",
      "BitsAllocated": 16,
      "BitsStored": 16,
      "BodyPartExamined": "BRAIN",
      "Columns": 832,
      "EchoNumbers": 1,
      "EchoTime": 35.0,
      "EchoTrainLength": 104,
      "FlipAngle": 62.0,
      "HighBit": 15,
      "ImageOrientationPatient": [1.0, 0.0, 0.0, 0.0, 0.99999847691345, 0.00174532827419],
      "ImagePositionPatient": [-832.0, -840.81085036859, -47.758948298682],
      "ImageType": [
        "ORIGINAL",
        "PRIMARY",
        "M",
        "MB",
        "ND",
        "MOSAIC"
],
      "ImagedNucleus": "1H",
      "ImagingFrequency": 123.190907,
      "InPlanePhaseEncodingDirection": "COL",
      "MRAcquisitionType": "2D",
      "MagneticFieldStrength": 3.0,
      "Manufacturer": "SIEMENS",
      "ManufacturerModelName": "Prisma",
      "Modality": "MR",
      "NumberOfAverages": 1.0,
      "NumberOfPhaseEncodingSteps": 104,
      "PercentPhaseFieldOfView": 100.0,
      "PercentSampling": 100.0,
      "PerformedProcedureStepStartTime": "192253.182000",
      "PhotometricInterpretation": "MONOCHROME2",
      "PixelBandwidth": 2290.0,
      "PixelRepresentation": 0,
      "PixelSpacing": [2.0, 2.0],
      "ProtocolName": "epi_MB4_2mm_motion",
      "RepetitionTime": 1300.0,
      "Rows": 832,
      "SAR": 0.0922905817558,
      "SamplesPerPixel": 1,
      "ScanOptions": "FS",
      "ScanningSequence": "EP",
      "SequenceName": "epfid2d1_104",
      "SequenceVariant": [
        "SK",
        "SS"
],
      "SeriesDescription": "epi_MB4_2mm_motion",
      "SeriesNumber": 5,
      "SeriesTime": "200524.769000",
      "SliceLocation": -46.291384607281,
      "SliceThickness": 2.0,
      "SmallestImagePixelValue": 0,
      "SoftwareVersions": "syngo MR E11",
      "SpacingBetweenSlices": 1.9999999580908,
      "SpecificCharacterSet": "ISO_IR 100",
      "StudyID": "1",
      "StudyTime": "192253.109000",
      "TransmitCoilName": "Body",
      "VariableFlipAngleFlag": "N",
      "WindowCenterWidthExplanation": "Algo1",
      "dBdt": 0.0},
    "slices": {}
  },
  "time": {
    "samples": {
      "AcquisitionNumber": [1, 2, 3, 4, 5, 6, 7, 8, 9, 10, 11, 12, 13, 14, 15, 16, 17, 18, 19, 20, 21, 22, 23, 24, 25, 26, 27, 28, 29, 30, 31, 32, 33, 34, 35, 36, 37, 38, 39, 40, 41, 42, 43, 44, 45, 46, 47, 48, 49, 50, 51, 52, 53, 54, 55, 56, 57, 58, 59, 60, 61, 62, 63, 64, 65, 66, 67, 68, 69, 70, 71, 72, 73, 74, 75, 76, 77, 78, 79, 80, 81, 82, 83, 84, 85, 86, 87, 88, 89, 90, 91, 92, 93, 94, 95, 96, 97, 98, 99, 100, 101, 102, 103, 104, 105, 106, 107, 108, 109, 110, 111, 112, 113, 114, 115, 116, 117, 118, 119, 120, 121, 122, 123, 124, 125, 126, 127, 128, 129, 130, 131, 132, 133, 134, 135, 136, 137, 138, 139, 140, 141, 142, 143, 144, 145, 146, 147, 148, 149, 150, 151, 152, 153, 154, 155, 156, 157, 158, 159, 160, 161, 162, 163, 164, 165, 166, 167, 168, 169, 170, 171, 172, 173, 174, 175, 176, 177, 178, 179, 180, 181, 182, 183, 184, 185, 186, 187, 188, 189, 190, 191, 192, 193, 194, 195, 196, 197, 198, 199, 200, 201, 202, 203, 204, 205, 206, 207, 208, 209, 210, 211, 212, 213, 214, 215, 216, 217, 218, 219, 220, 221, 222, 223, 224, 225, 226, 227, 228, 229, 230, 231, 232, 233, 234, 235, 236, 237, 238, 239, 240, 241, 242, 243, 244, 245, 246, 247, 248, 249, 250, 251, 252, 253, 254, 255, 256, 257, 258, 259, 260, 261, 262, 263, 264, 265, 266, 267, 268, 269, 270, 271, 272, 273, 274, 275, 276, 277, 278, 279, 280, 281, 282, 283, 284, 285, 286, 287, 288, 289, 290, 291, 292, 293, 294, 295, 296, 297, 298, 299, 300, 301, 302, 303, 304, 305, 306, 307, 308, 309, 310, 311, 312, 313, 314, 315, 316, 317, 318, 319, 320, 321, 322, 323, 324],
      "AcquisitionTime": ["200448.370000", "200449.670000", "200450.970000", "200452.270000", "200453.570000", "200454.870000", "200456.170000", "200457.470000", "200458.770000", "200500.070000", "200501.370000", "200502.670000", "200503.970000", "200505.270000", "200506.570000", "200507.870000", "200509.170000", "200510.470000", "200511.770000", "200513.070000", "200514.370000", "200515.670000", "200516.970000", "200518.270000", "200519.570000", "200520.870000", "200522.170000", "200523.470000", "200524.770000", "200526.070000", "200527.370000", "200528.670000", "200529.970000", "200531.270000", "200532.570000", "200533.870000", "200535.170000", "200536.470000", "200537.770000", "200539.070000", "200540.370000", "200541.670000", "200542.970000", "200544.270000", "200545.570000", "200546.870000", "200548.170000", "200549.470000", "200550.770000", "200552.070000", "200553.370000", "200554.670000", "200555.970000", "200557.270000", "200558.570000", "200559.870000", "200601.170000", "200602.470000", "200603.770000", "200605.070000", "200606.370000", "200607.670000", "200608.970000", "200610.270000", "200611.570000", "200612.870000", "200614.170000", "200615.470000", "200616.770000", "200618.070000", "200619.370000", "200620.670000", "200621.970000", "200623.270000", "200624.570000", "200625.870000", "200627.170000", "200628.470000", "200629.770000", "200631.070000", "200632.370000", "200633.670000", "200634.970000", "200636.270000", "200637.570000", "200638.870000", "200640.170000", "200641.470000", "200642.770000", "200644.070000", "200645.370000", "200646.670000", "200647.970000", "200649.270000", "200650.570000", "200651.870000", "200653.170000", "200654.470000", "200655.770000", "200657.070000", "200658.370000", "200659.670000", "200700.970000", "200702.270000", "200703.570000", "200704.870000", "200706.170000", "200707.470000", "200708.770000", "200710.070000", "200711.370000", "200712.670000", "200713.970000", "200715.270000", "200716.570000", "200717.870000", "200719.170000", "200720.470000", "200721.770000", "200723.070000", "200724.370000", "200725.670000", "200726.970000", "200728.270000", "200729.570000", "200730.870000", "200732.170000", "200733.470000", "200734.770000", "200736.070000", "200737.370000", "200738.670000", "200739.970000", "200741.270000", "200742.570000", "200743.870000", "200745.170000", "200746.470000", "200747.770000", "200749.070000", "200750.370000", "200751.670000", "200752.970000", "200754.270000", "200755.570000", "200756.870000", "200758.170000", "200759.470000", "200800.770000", "200802.070000", "200803.370000", "200804.670000", "200805.970000", "200807.270000", "200808.570000", "200809.870000", "200811.170000", "200812.470000", "200813.770000", "200815.070000", "200816.370000", "200817.670000", "200818.970000", "200820.270000", "200821.570000", "200822.870000", "200824.170000", "200825.470000", "200826.770000", "200828.070000", "200829.370000", "200830.670000", "200831.970000", "200833.270000", "200834.570000", "200835.870000", "200837.170000", "200838.470000", "200839.770000", "200841.070000", "200842.370000", "200843.670000", "200844.970000", "200846.270000", "200847.570000", "200848.870000", "200850.170000", "200851.470000", "200852.770000", "200854.070000", "200855.370000", "200856.670000", "200857.970000", "200859.270000", "200900.570000", "200901.870000", "200903.170000", "200904.470000", "200905.770000", "200907.070000", "200908.370000", "200909.670000", "200910.970000", "200912.270000", "200913.570000", "200914.870000", "200916.170000", "200917.470000", "200918.770000", "200920.070000", "200921.370000", "200922.670000", "200923.970000", "200925.270000", "200926.570000", "200927.870000", "200929.170000", "200930.470000", "200931.770000", "200933.070000", "200934.370000", "200935.670000", "200936.970000", "200938.270000", "200939.570000", "200940.870000", "200942.170000", "200943.470000", "200944.770000", "200946.070000", "200947.370000", "200948.670000", "200949.970000", "200951.270000", "200952.570000", "200953.870000", "200955.170000", "200956.470000", "200957.770000", "200959.070000", "201000.370000", "201001.670000", "201002.970000", "201004.270000", "201005.570000", "201006.870000", "201008.170000", "201009.470000", "201010.770000", "201012.070000", "201013.370000", "201014.670000", "201015.970000", "201017.270000", "201018.570000", "201019.870000", "201021.170000", "201022.470000", "201023.770000", "201025.070000", "201026.370000", "201027.670000", "201028.970000", "201030.270000", "201031.570000", "201032.870000", "201034.170000", "201035.470000", "201036.770000", "201038.070000", "201039.370000", "201040.670000", "201041.970000", "201043.270000", "201044.570000", "201045.870000", "201047.170000", "201048.470000", "201049.770000", "201051.070000", "201052.370000", "201053.670000", "201054.970000", "201056.270000", "201057.570000", "201058.870000", "201100.170000", "201101.470000", "201102.770000", "201104.070000", "201105.370000", "201106.670000", "201107.970000", "201109.270000", "201110.570000", "201111.870000", "201113.170000", "201114.470000", "201115.770000", "201117.070000", "201118.370000", "201119.670000", "201120.970000", "201122.270000", "201123.570000", "201124.870000", "201126.170000", "201127.470000", "201128.770000", "201130.070000", "201131.370000", "201132.670000", "201133.970000", "201135.270000", "201136.570000", "201137.870000", "201139.170000", "201140.470000", "201141.770000", "201143.070000", "201144.370000", "201145.670000", "201146.970000", "201148.270000"],
      "ContentTime": ["200524.771000", "200524.775000", "200524.778000", "200524.781000", "200524.784000", "200524.787000", "200524.790000", "200524.793000", "200524.801000", "200524.812000", "200524.815000", "200524.818000", "200524.821000", "200524.824000", "200524.827000", "200524.830000", "200524.833000", "200524.836000", "200524.839000", "200524.842000", "200524.845000", "200524.848000", "200524.851000", "200524.854000", "200524.870000", "200524.873000", "200524.876000", "200604.743000", "200604.746000", "200604.749000", "200604.752000", "200604.755000", "200604.758000", "200604.761000", "200604.764000", "200604.767000", "200604.770000", "200604.773000", "200604.776000", "200604.779000", "200604.783000", "200604.785000", "200604.788000", "200604.791000", "200604.794000", "200604.797000", "200604.800000", "200604.803000", "200604.806000", "200604.809000", "200604.812000", "200604.815000", "200604.818000", "200604.821000", "200604.825000", "200604.828000", "200604.831000", "200604.834000", "200624.743000", "200624.746000", "200624.749000", "200624.752000", "200624.755000", "200624.758000", "200624.761000", "200624.764000", "200624.767000", "200624.801000", "200624.805000", "200624.808000", "200624.811000", "200624.814000", "200624.817000", "200704.743000", "200704.746000", "200704.749000", "200704.752000", "200704.755000", "200704.758000", "200704.761000", "200704.764000", "200704.767000", "200704.822000", "200704.825000", "200704.828000", "200704.831000", "200704.851000", "200704.854000", "200704.856000", "200704.859000", "200704.862000", "200704.865000", "200704.868000", "200704.871000", "200704.874000", "200704.877000", "200704.880000", "200704.883000", "200704.886000", "200704.889000", "200704.892000", "200704.895000", "200704.898000", "200704.901000", "200744.744000", "200744.747000", "200744.750000", "200744.753000", "200744.756000", "200744.759000", "200744.762000", "200744.765000", "200744.769000", "200744.772000", "200744.775000", "200744.778000", "200744.781000", "200744.784000", "200744.787000", "200744.790000", "200744.794000", "200744.797000", "200744.800000", "200744.803000", "200744.806000", "200744.809000", "200744.813000", "200744.816000", "200744.819000", "200744.822000", "200744.825000", "200744.828000", "200744.831000", "200744.835000", "200744.847000", "200824.743000", "200824.746000", "200824.749000", "200824.752000", "200824.755000", "200824.758000", "200824.761000", "200824.764000", "200824.767000", "200824.771000", "200824.774000", "200824.776000", "200824.779000", "200824.783000", "200824.786000", "200824.789000", "200824.792000", "200824.795000", "200824.798000", "200824.801000", "200824.804000", "200824.807000", "200824.810000", "200824.813000", "200824.816000", "200824.819000", "200824.822000", "200824.825000", "200824.828000", "200824.831000", "200904.743000", "200904.746000", "200904.749000", "200904.753000", "200904.756000", "200904.759000", "200904.762000", "200904.765000", "200904.768000", "200904.771000", "200904.774000", "200904.777000", "200904.780000", "200904.783000", "200904.786000", "200904.789000", "200904.792000", "200904.795000", "200904.798000", "200904.801000", "200904.804000", "200904.807000", "200904.810000", "200904.813000", "200904.816000", "200904.819000", "200904.822000", "200904.825000", "200904.828000", "200904.831000", "200904.834000", "200944.744000", "200944.747000", "200944.750000", "200944.753000", "200944.756000", "200944.759000", "200944.762000", "200944.765000", "200944.768000", "200944.807000", "200944.818000", "200944.821000", "200944.824000", "200944.826000", "200944.830000", "200944.833000", "200944.836000", "200944.838000", "200944.842000", "200944.845000", "200944.848000", "200944.851000", "200944.854000", "200944.857000", "200944.860000", "200944.863000", "200944.866000", "200944.869000", "200944.872000", "200944.875000", "200944.878000", "201024.743000", "201024.746000", "201024.749000", "201024.752000", "201024.755000", "201024.758000", "201024.761000", "201024.764000", "201024.768000", "201024.771000", "201024.774000", "201024.777000", "201024.780000", "201024.783000", "201024.786000", "201024.789000", "201024.792000", "201024.798000", "201024.801000", "201024.804000", "201024.807000", "201024.810000", "201024.813000", "201024.816000", "201024.819000", "201024.822000", "201024.825000", "201024.827000", "201024.830000", "201024.833000", "201024.836000", "201104.743000", "201104.746000", "201104.749000", "201104.752000", "201104.755000", "201104.758000", "201104.761000", "201104.764000", "201104.768000", "201104.917000", "201104.920000", "201104.923000", "201104.926000", "201104.929000", "201104.932000", "201104.946000", "201104.957000", "201104.960000", "201104.963000", "201104.966000", "201104.969000", "201104.972000", "201104.975000", "201104.978000", "201104.981000", "201104.984000", "201104.987000", "201104.990000", "201104.993000", "201104.996000", "201105.000000", "201144.743000", "201144.747000", "201144.750000", "201144.753000", "201144.755000", "201144.759000", "201144.762000", "201144.765000", "201144.768000", "201144.771000", "201144.774000", "201144.777000", "201144.780000", "201144.783000", "201144.786000", "201144.789000", "201144.792000", "201144.795000", "201144.798000", "201144.801000", "201144.804000", "201144.807000", "201144.810000", "201144.813000", "201144.816000", "201144.819000", "201144.822000", "201144.825000", "201144.828000", "201144.831000", "201150.182000", "201150.186000", "201150.189000", "201150.192000", "201150.195000"],
      "InstanceCreationTime": ["200524.771000", "200524.775000", "200524.778000", "200524.781000", "200524.784000", "200524.787000", "200524.790000", "200524.793000", "200524.801000", "200524.812000", "200524.815000", "200524.818000", "200524.821000", "200524.824000", "200524.827000", "200524.830000", "200524.833000", "200524.836000", "200524.839000", "200524.842000", "200524.845000", "200524.848000", "200524.851000", "200524.854000", "200524.870000", "200524.873000", "200524.876000", "200604.743000", "200604.746000", "200604.749000", "200604.752000", "200604.755000", "200604.758000", "200604.761000", "200604.764000", "200604.767000", "200604.770000", "200604.773000", "200604.776000", "200604.779000", "200604.783000", "200604.785000", "200604.788000", "200604.791000", "200604.794000", "200604.797000", "200604.800000", "200604.803000", "200604.806000", "200604.809000", "200604.812000", "200604.815000", "200604.818000", "200604.821000", "200604.825000", "200604.828000", "200604.831000", "200604.834000", "200624.743000", "200624.746000", "200624.749000", "200624.752000", "200624.755000", "200624.758000", "200624.761000", "200624.764000", "200624.767000", "200624.801000", "200624.805000", "200624.808000", "200624.811000", "200624.814000", "200624.817000", "200704.743000", "200704.746000", "200704.749000", "200704.752000", "200704.755000", "200704.758000", "200704.761000", "200704.764000", "200704.767000", "200704.822000", "200704.825000", "200704.828000", "200704.831000", "200704.851000", "200704.854000", "200704.856000", "200704.859000", "200704.862000", "200704.865000", "200704.868000", "200704.871000", "200704.874000", "200704.877000", "200704.880000", "200704.883000", "200704.886000", "200704.889000", "200704.892000", "200704.895000", "200704.898000", "200704.901000", "200744.744000", "200744.747000", "200744.750000", "200744.753000", "200744.756000", "200744.759000", "200744.762000", "200744.765000", "200744.769000", "200744.772000", "200744.775000", "200744.778000", "200744.781000", "200744.784000", "200744.787000", "200744.790000", "200744.794000", "200744.797000", "200744.800000", "200744.803000", "200744.806000", "200744.809000", "200744.813000", "200744.816000", "200744.819000", "200744.822000", "200744.825000", "200744.828000", "200744.831000", "200744.835000", "200744.847000", "200824.743000", "200824.746000", "200824.749000", "200824.752000", "200824.755000", "200824.758000", "200824.761000", "200824.764000", "200824.767000", "200824.771000", "200824.774000", "200824.776000", "200824.779000", "200824.783000", "200824.786000", "200824.789000", "200824.792000", "200824.795000", "200824.798000", "200824.801000", "200824.804000", "200824.807000", "200824.810000", "200824.813000", "200824.816000", "200824.819000", "200824.822000", "200824.825000", "200824.828000", "200824.831000", "200904.743000", "200904.746000", "200904.749000", "200904.753000", "200904.756000", "200904.759000", "200904.762000", "200904.765000", "200904.768000", "200904.771000", "200904.774000", "200904.777000", "200904.780000", "200904.783000", "200904.786000", "200904.789000", "200904.792000", "200904.795000", "200904.798000", "200904.801000", "200904.804000", "200904.807000", "200904.810000", "200904.813000", "200904.816000", "200904.819000", "200904.822000", "200904.825000", "200904.828000", "200904.831000", "200904.834000", "200944.744000", "200944.747000", "200944.750000", "200944.753000", "200944.756000", "200944.759000", "200944.762000", "200944.765000", "200944.768000", "200944.807000", "200944.818000", "200944.821000", "200944.824000", "200944.826000", "200944.830000", "200944.833000", "200944.836000", "200944.838000", "200944.842000", "200944.845000", "200944.848000", "200944.851000", "200944.854000", "200944.857000", "200944.860000", "200944.863000", "200944.866000", "200944.869000", "200944.872000", "200944.875000", "200944.878000", "201024.743000", "201024.746000", "201024.749000", "201024.752000", "201024.755000", "201024.758000", "201024.761000", "201024.764000", "201024.768000", "201024.771000", "201024.774000", "201024.777000", "201024.780000", "201024.783000", "201024.786000", "201024.789000", "201024.792000", "201024.798000", "201024.801000", "201024.804000", "201024.807000", "201024.810000", "201024.813000", "201024.816000", "201024.819000", "201024.822000", "201024.825000", "201024.827000", "201024.830000", "201024.833000", "201024.836000", "201104.743000", "201104.746000", "201104.749000", "201104.752000", "201104.755000", "201104.758000", "201104.761000", "201104.764000", "201104.768000", "201104.917000", "201104.920000", "201104.923000", "201104.926000", "201104.929000", "201104.932000", "201104.946000", "201104.957000", "201104.960000", "201104.963000", "201104.966000", "201104.969000", "201104.972000", "201104.975000", "201104.978000", "201104.981000", "201104.984000", "201104.987000", "201104.990000", "201104.993000", "201104.996000", "201105.000000", "201144.743000", "201144.747000", "201144.750000", "201144.753000", "201144.755000", "201144.759000", "201144.762000", "201144.765000", "201144.768000", "201144.771000", "201144.774000", "201144.777000", "201144.780000", "201144.783000", "201144.786000", "201144.789000", "201144.792000", "201144.795000", "201144.798000", "201144.801000", "201144.804000", "201144.807000", "201144.810000", "201144.813000", "201144.816000", "201144.819000", "201144.822000", "201144.825000", "201144.828000", "201144.831000", "201150.182000", "201150.186000", "201150.189000", "201150.192000", "201150.195000"],
      "InstanceNumber": [1, 2, 3, 4, 5, 6, 7, 8, 9, 10, 11, 12, 13, 14, 15, 16, 17, 18, 19, 20, 21, 22, 23, 24, 25, 26, 27, 28, 29, 30, 31, 32, 33, 34, 35, 36, 37, 38, 39, 40, 41, 42, 43, 44, 45, 46, 47, 48, 49, 50, 51, 52, 53, 54, 55, 56, 57, 58, 59, 60, 61, 62, 63, 64, 65, 66, 67, 68, 69, 70, 71, 72, 73, 74, 75, 76, 77, 78, 79, 80, 81, 82, 83, 84, 85, 86, 87, 88, 89, 90, 91, 92, 93, 94, 95, 96, 97, 98, 99, 100, 101, 102, 103, 104, 105, 106, 107, 108, 109, 110, 111, 112, 113, 114, 115, 116, 117, 118, 119, 120, 121, 122, 123, 124, 125, 126, 127, 128, 129, 130, 131, 132, 133, 134, 135, 136, 137, 138, 139, 140, 141, 142, 143, 144, 145, 146, 147, 148, 149, 150, 151, 152, 153, 154, 155, 156, 157, 158, 159, 160, 161, 162, 163, 164, 165, 166, 167, 168, 169, 170, 171, 172, 173, 174, 175, 176, 177, 178, 179, 180, 181, 182, 183, 184, 185, 186, 187, 188, 189, 190, 191, 192, 193, 194, 195, 196, 197, 198, 199, 200, 201, 202, 203, 204, 205, 206, 207, 208, 209, 210, 211, 212, 213, 214, 215, 216, 217, 218, 219, 220, 221, 222, 223, 224, 225, 226, 227, 228, 229, 230, 231, 232, 233, 234, 235, 236, 237, 238, 239, 240, 241, 242, 243, 244, 245, 246, 247, 248, 249, 250, 251, 252, 253, 254, 255, 256, 257, 258, 259, 260, 261, 262, 263, 264, 265, 266, 267, 268, 269, 270, 271, 272, 273, 274, 275, 276, 277, 278, 279, 280, 281, 282, 283, 284, 285, 286, 287, 288, 289, 290, 291, 292, 293, 294, 295, 296, 297, 298, 299, 300, 301, 302, 303, 304, 305, 306, 307, 308, 309, 310, 311, 312, 313, 314, 315, 316, 317, 318, 319, 320, 321, 322, 323, 324],
      "LargestImagePixelValue": [19604, 19612, 19694, 19827, 19477, 19811, 19477, 19616, 19708, 19796, 19769, 19634, 19983, 19892, 19507, 19492, 19907, 19616, 19766, 19669, 19560, 20183, 20271, 19704, 20072, 19464, 19938, 19829, 19456, 20000, 19802, 19482, 19791, 19304, 19863, 19569, 19424, 19882, 19832, 19724, 19871, 21025, 19044, 19015, 20082, 19199, 18915, 18830, 19914, 17946, 18378, 17813, 18582, 18312, 18479, 18884, 19164, 19029, 19180, 19464, 19154, 19309, 20141, 19527, 19870, 19838, 19651, 20155, 19380, 19504, 19961, 19531, 19949, 19867, 19692, 19843, 19461, 19512, 19703, 19514, 19647, 19900, 19979, 19891, 19302, 21293, 19324, 21223, 20644, 19207, 19763, 19340, 19277, 18370, 19064, 18533, 19331, 20724, 20391, 22438, 22517, 20818, 21658, 19662, 20721, 19078, 18099, 19829, 19139, 21546, 19169, 19949, 19335, 19738, 19564, 19385, 19581, 19796, 19648, 19701, 19070, 19338, 19707, 19487, 19191, 19675, 19211, 19548, 19251, 19397, 19815, 19108, 19438, 19346, 20965, 19551, 19422, 19408, 20856, 19342, 21329, 20263, 20266, 19890, 20048, 20034, 19129, 20450, 20572, 19820, 19513, 19471, 18897, 20424, 20715, 20588, 19315, 19330, 20821, 19926, 19214, 19719, 19852, 19357, 20347, 19183, 18939, 19506, 18799, 19198, 19992, 20218, 19842, 20205, 19526, 20131, 20184, 19147, 19869, 19222, 19217, 19720, 18771, 17950, 23041, 19467, 18287, 20893, 20771, 20104, 19783, 19701, 18975, 18951, 20291, 20538, 19041, 18970, 19302, 19793, 18483, 19167, 18502, 18834, 19163, 19098, 19044, 19109, 18975, 18818, 18719, 19347, 18902, 18881, 19274, 18880, 19139, 19235, 19087, 19162, 19156, 19375, 19133, 19069, 18814, 19025, 19063, 19285, 20165, 21015, 20610, 20783, 20055, 20198, 19481, 19586, 19877, 19484, 19074, 22336, 25359, 21739, 21172, 22872, 20740, 20424, 20130, 22619, 19916, 19393, 18713, 18907, 22117, 19808, 19209, 19174, 18995, 18765, 19462, 19032, 18483, 19634, 18886, 18669, 19080, 19125, 18949, 18633, 19578, 19497, 18871, 19467, 19395, 18758, 19535, 18789, 18630, 20974, 19996, 19828, 19811, 19945, 18633, 21537, 19142, 19003, 18331, 19726, 21346, 18948, 22464, 20574, 20712, 20560, 20060, 18885, 20285, 19347, 18660, 18848, 19144, 19339, 19005, 18743, 19556, 18669, 18914, 20072, 19712, 21193, 19074, 18260, 20047, 19618, 18678, 19627, 19585, 18917, 19467, 19298, 19611, 20207, 18598, 20658],
      "WindowCenter": [6237.0, 6204.0, 6211.0, 6194.0, 6196.0, 6208.0, 6185.0, 6196.0, 6180.0, 6192.0, 6206.0, 6172.0, 6184.0, 6180.0, 6184.0, 6197.0, 6182.0, 6184.0, 6207.0, 6185.0, 6197.0, 6192.0, 6193.0, 6196.0, 6190.0, 6185.0, 6210.0, 6196.0, 6198.0, 6191.0, 6183.0, 6185.0, 6179.0, 6173.0, 6194.0, 6172.0, 6185.0, 6169.0, 6182.0, 6180.0, 6047.0, 6216.0, 6168.0, 6043.0, 6212.0, 6181.0, 6173.0, 6146.0, 6056.0, 6166.0, 6181.0, 6169.0, 6162.0, 6183.0, 6164.0, 6146.0, 6174.0, 6208.0, 6203.0, 6225.0, 6188.0, 6214.0, 6257.0, 6223.0, 6233.0, 6234.0, 6212.0, 6233.0, 6208.0, 6222.0, 6225.0, 6222.0, 6223.0, 6219.0, 6221.0, 6224.0, 6207.0, 6210.0, 6222.0, 6210.0, 6211.0, 6218.0, 6220.0, 6224.0, 6067.0, 6198.0, 6086.0, 6017.0, 6029.0, 5975.0, 6024.0, 6118.0, 6269.0, 6220.0, 6230.0, 6180.0, 5985.0, 5927.0, 6059.0, 6065.0, 6021.0, 6020.0, 5955.0, 6110.0, 6363.0, 6291.0, 6242.0, 6258.0, 6025.0, 6284.0, 6221.0, 6248.0, 6241.0, 6266.0, 6256.0, 6256.0, 6267.0, 6264.0, 6250.0, 6250.0, 6212.0, 6225.0, 6237.0, 6225.0, 6240.0, 6253.0, 6240.0, 6241.0, 6231.0, 6225.0, 6236.0, 6211.0, 6224.0, 6100.0, 6248.0, 6196.0, 6194.0, 6087.0, 6189.0, 5948.0, 6125.0, 6095.0, 6152.0, 6129.0, 6137.0, 6138.0, 6004.0, 6077.0, 6242.0, 6207.0, 6197.0, 6197.0, 6081.0, 6038.0, 6213.0, 6142.0, 6112.0, 6107.0, 6026.0, 6188.0, 6178.0, 6173.0, 6202.0, 6203.0, 6228.0, 6215.0, 6196.0, 6210.0, 6179.0, 6184.0, 6188.0, 6201.0, 6203.0, 6214.0, 6211.0, 6220.0, 6219.0, 6203.0, 6207.0, 6187.0, 6188.0, 6191.0, 6174.0, 5970.0, 6190.0, 6134.0, 5999.0, 6138.0, 6201.0, 6136.0, 6136.0, 6159.0, 6181.0, 6150.0, 6042.0, 6086.0, 6143.0, 6117.0, 5970.0, 6172.0, 6126.0, 6184.0, 6068.0, 6180.0, 6185.0, 6189.0, 6192.0, 6189.0, 6181.0, 6161.0, 6167.0, 6192.0, 6178.0, 6180.0, 6180.0, 6176.0, 6189.0, 6189.0, 6188.0, 6177.0, 6160.0, 6196.0, 6194.0, 6191.0, 6183.0, 6183.0, 6180.0, 5998.0, 6007.0, 5954.0, 5974.0, 5929.0, 5895.0, 5890.0, 6161.0, 6152.0, 6163.0, 6166.0, 6046.0, 5879.0, 6029.0, 5974.0, 5966.0, 5981.0, 5943.0, 5878.0, 6032.0, 6345.0, 6248.0, 6230.0, 6270.0, 6042.0, 6293.0, 6267.0, 6241.0, 6245.0, 6239.0, 6236.0, 6255.0, 6237.0, 6237.0, 6256.0, 6233.0, 6225.0, 6244.0, 6245.0, 6235.0, 6227.0, 6257.0, 6243.0, 6245.0, 6256.0, 6243.0, 6232.0, 6243.0, 6222.0, 6053.0, 6251.0, 6204.0, 6201.0, 6190.0, 6188.0, 5947.0, 6202.0, 6134.0, 6121.0, 6113.0, 6148.0, 6176.0, 6014.0, 6094.0, 6236.0, 6212.0, 6203.0, 6205.0, 6041.0, 6081.0, 6168.0, 6125.0, 6120.0, 6085.0, 6158.0, 6177.0, 6191.0, 6208.0, 6199.0, 6214.0, 6239.0, 6243.0, 6259.0, 6218.0, 6192.0, 6223.0, 6202.0, 6188.0, 6204.0, 6228.0, 6213.0, 6219.0, 6224.0, 6233.0, 6238.0, 6214.0, 6261.0],
