{
  "AcquisitionMatrixPE": 104,
  "AcquisitionNumber": 1,
  "AcquisitionTime": "22:34:26.747500",
  "BandwidthPerPixelPhaseEncode": 17.17,
  "BaseResolution": 104,
  "BodyPartExamined": "BRAIN",
  "ConsistencyInfo": "N4_VE11C_LATEST_20160120",
  "ConversionSoftware": "dcm2niix",
  "ConversionSoftwareVersion": "v1.0.20190410  GCC6.3.0",
  "DerivedVendorReportedEchoSpacing": 0.000560011,
  "DeviceSerialNumber": "166018",
  "DwellTime": 2.1e-06,
  "EchoTime": 0.035,
  "EchoTrainLength": 104,
  "EffectiveEchoSpacing": 0.000560011,
  "FlipAngle": 62,
  "ImageComments": "Unaliased_MB4_PE3_LB",
  "ImageOrientationPatientDICOM": [1, 0, 0, 0, 0.939693, -0.34202],
  "ImageType": [
    "ORIGINAL",
    "PRIMARY",
    "M",
    "MB",
    "ND",
    "MOSAIC"
],
  "ImagingFrequency": 123.191,
  "InPlanePhaseEncodingDirectionDICOM": "COL",
  "InstitutionAddress": "Washington_Place_6_NYC_NYC_US_10003",
  "InstitutionName": "NYU_-_CBI",
  "InstitutionalDepartmentName": "Department",
  "MRAcquisitionType": "2D",
  "MagneticFieldStrength": 3,
  "Manufacturer": "Siemens",
  "ManufacturersModelName": "Prisma",
  "Modality": "MR",
  "MultibandAccelerationFactor": 4,
  "PartialFourier": 1,
  "PatientPosition": "HFS",
  "PercentPhaseFOV": 100,
  "PhaseEncodingDirection": "j-",
  "PhaseEncodingSteps": 104,
  "PhaseResolution": 1,
  "PixelBandwidth": 2290,
  "ProcedureStepDescription": "",
  "ProtocolName": "epi_MB4_2mm_motion",
  "PulseSequenceDetails": "%CustomerSeq%_cmrr_mbep2d_bold",
  "ReceiveCoilActiveElements": "HEA;HEP",
  "ReceiveCoilName": "Head_32",
  "ReconMatrixPE": 104,
  "RepetitionTime": 1.3,
  "SAR": 0.0857528,
  "ScanOptions": "FS",
  "ScanningSequence": "EP",
  "SequenceName": "epfid2d1_104",
  "SequenceVariant": "SK_SS",
  "SeriesDescription": "epi_MB4_2mm_motion",
  "SeriesNumber": 7,
  "ShimSetting": [246, -12659, -8488, 259, 29, 26, 74, 9],
  "SliceThickness": 2,
  "SliceTiming": [0, 0.56, 1.12, 0.4, 0.96, 0.24, 0.8, 0.08, 0.64, 1.2, 0.48, 1.04, 0.32, 0.88, 0.16, 0.72, 0, 0.56, 1.12, 0.4, 0.96, 0.24, 0.8, 0.08, 0.64, 1.2, 0.48, 1.04, 0.32, 0.88, 0.16, 0.72, 0, 0.56, 1.12, 0.4, 0.96, 0.24, 0.8, 0.08, 0.64, 1.2, 0.48, 1.04, 0.32, 0.88, 0.16, 0.72, 0, 0.56, 1.12, 0.4, 0.96, 0.24, 0.8, 0.08, 0.64, 1.2, 0.48, 1.04, 0.32, 0.88, 0.16, 0.72],
  "SoftwareVersions": "syngo_MR_E11",
  "SpacingBetweenSlices": 2,
  "StationName": "AWP166018",
  "TaskName": "TASK",
  "TotalReadoutTime": 0.0576811,
  "TxRefAmp": 261.707,
  "WipMemBlock": "ee10d13b-04a8-4a96-9ce8-6ca67c946994||Sequence: R016 ve11c/master r/8780670; Nov 27 2017 15:05:12 by eja",
  "dcmmeta_affine": [
    [-2.0, 0.0, 0.0, 104.0],
    [0.0, 1.879385232925415, -0.6840403079986572, -81.41786193847656],
    [0.0, 0.6840403079986572, 1.879385232925415, -76.7767562866211],
    [0.0, 0.0, 0.0, 1.0]
],
  "dcmmeta_reorient_transform": [
    [0.0, -1.0, 0.0, 103.0],
    [1.0, 0.0, 0.0, 0.0],
    [0.0, 0.0, 1.0, 0.0],
    [0.0, 0.0, 0.0, 1.0]
],
  "dcmmeta_shape": [104, 104, 64, 324],
  "dcmmeta_slice_dim": 2,
  "dcmmeta_version": 0.6,
  "global": {
    "const": {
      "AccessionNumber": "jzruLrgz",
      "AcquisitionMatrix": [104, 0, 0, 104],
      "AngioFlag": "N",
      "BitsAllocated": 16,
      "BitsStored": 16,
      "BodyPartExamined": "BRAIN",
      "Columns": 832,
      "EchoNumbers": 1,
      "EchoTime": 35.0,
      "EchoTrainLength": 104,
      "FlipAngle": 62.0,
      "HighBit": 15,
      "ImageOrientationPatient": [1.0, 0.0, 0.0, 0.0, 0.93969261856831, -0.3420201494185],
      "ImagePositionPatient": [-832.0, -796.255046689, 242.67006683692],
      "ImageType": [
        "ORIGINAL",
        "PRIMARY",
        "M",
        "MB",
        "ND",
        "MOSAIC"
],
      "ImagedNucleus": "1H",
      "ImagingFrequency": 123.191084,
      "InPlanePhaseEncodingDirection": "COL",
      "MRAcquisitionType": "2D",
      "MagneticFieldStrength": 3.0,
      "Manufacturer": "SIEMENS",
      "ManufacturerModelName": "Prisma",
      "Modality": "MR",
      "NumberOfAverages": 1.0,
      "NumberOfPhaseEncodingSteps": 104,
      "PercentPhaseFieldOfView": 100.0,
      "PercentSampling": 100.0,
      "PerformedProcedureStepStartTime": "214140.236000",
      "PhotometricInterpretation": "MONOCHROME2",
      "PixelBandwidth": 2290.0,
      "PixelRepresentation": 0,
      "PixelSpacing": [2.0, 2.0],
      "ProtocolName": "epi_MB4_2mm_motion",
      "RepetitionTime": 1300.0,
      "Rows": 832,
      "SAR": 0.08575282844287,
      "SamplesPerPixel": 1,
      "ScanOptions": "FS",
      "ScanningSequence": "EP",
      "SequenceName": "epfid2d1_104",
      "SequenceVariant": [
        "SK",
        "SS"
],
      "SeriesDescription": "epi_MB4_2mm_motion",
      "SeriesNumber": 7,
      "SeriesTime": "223445.620000",
      "SliceLocation": -44.29999948965,
      "SliceThickness": 2.0,
      "SmallestImagePixelValue": 0,
      "SoftwareVersions": "syngo MR E11",
      "SpacingBetweenSlices": 2.0000000221216,
      "SpecificCharacterSet": "ISO_IR 100",
      "StudyID": "1",
      "StudyTime": "214140.116000",
      "TransmitCoilName": "Body",
      "VariableFlipAngleFlag": "N",
      "dBdt": 0.0},
    "slices": {}
  },
  "time": {
    "samples": {
      "AcquisitionNumber": [1, 2, 3, 4, 5, 6, 7, 8, 9, 10, 11, 12, 13, 14, 15, 16, 17, 18, 19, 20, 21, 22, 23, 24, 25, 26, 27, 28, 29, 30, 31, 32, 33, 34, 35, 36, 37, 38, 39, 40, 41, 42, 43, 44, 45, 46, 47, 48, 49, 50, 51, 52, 53, 54, 55, 56, 57, 58, 59, 60, 61, 62, 63, 64, 65, 66, 67, 68, 69, 70, 71, 72, 73, 74, 75, 76, 77, 78, 79, 80, 81, 82, 83, 84, 85, 86, 87, 88, 89, 90, 91, 92, 93, 94, 95, 96, 97, 98, 99, 100, 101, 102, 103, 104, 105, 106, 107, 108, 109, 110, 111, 112, 113, 114, 115, 116, 117, 118, 119, 120, 121, 122, 123, 124, 125, 126, 127, 128, 129, 130, 131, 132, 133, 134, 135, 136, 137, 138, 139, 140, 141, 142, 143, 144, 145, 146, 147, 148, 149, 150, 151, 152, 153, 154, 155, 156, 157, 158, 159, 160, 161, 162, 163, 164, 165, 166, 167, 168, 169, 170, 171, 172, 173, 174, 175, 176, 177, 178, 179, 180, 181, 182, 183, 184, 185, 186, 187, 188, 189, 190, 191, 192, 193, 194, 195, 196, 197, 198, 199, 200, 201, 202, 203, 204, 205, 206, 207, 208, 209, 210, 211, 212, 213, 214, 215, 216, 217, 218, 219, 220, 221, 222, 223, 224, 225, 226, 227, 228, 229, 230, 231, 232, 233, 234, 235, 236, 237, 238, 239, 240, 241, 242, 243, 244, 245, 246, 247, 248, 249, 250, 251, 252, 253, 254, 255, 256, 257, 258, 259, 260, 261, 262, 263, 264, 265, 266, 267, 268, 269, 270, 271, 272, 273, 274, 275, 276, 277, 278, 279, 280, 281, 282, 283, 284, 285, 286, 287, 288, 289, 290, 291, 292, 293, 294, 295, 296, 297, 298, 299, 300, 301, 302, 303, 304, 305, 306, 307, 308, 309, 310, 311, 312, 313, 314, 315, 316, 317, 318, 319, 320, 321, 322, 323, 324],
      "AcquisitionTime": ["223426.747500", "223428.047500", "223429.347500", "223430.647500", "223431.947500", "223433.247500", "223434.547500", "223435.847500", "223437.147500", "223438.447500", "223439.747500", "223441.047500", "223442.347500", "223443.647500", "223444.947500", "223446.247500", "223447.547500", "223448.847500", "223450.147500", "223451.447500", "223452.747500", "223454.047500", "223455.347500", "223456.647500", "223457.947500", "223459.247500", "223500.547500", "223501.847500", "223503.147500", "223504.447500", "223505.747500", "223507.047500", "223508.347500", "223509.647500", "223510.947500", "223512.247500", "223513.547500", "223514.847500", "223516.147500", "223517.447500", "223518.747500", "223520.047500", "223521.347500", "223522.647500", "223523.947500", "223525.247500", "223526.547500", "223527.847500", "223529.147500", "223530.447500", "223531.747500", "223533.047500", "223534.347500", "223535.647500", "223536.947500", "223538.247500", "223539.547500", "223540.847500", "223542.147500", "223543.447500", "223544.747500", "223546.047500", "223547.347500", "223548.647500", "223549.947500", "223551.247500", "223552.547500", "223553.847500", "223555.147500", "223556.447500", "223557.747500", "223559.047500", "223600.347500", "223601.647500", "223602.947500", "223604.247500", "223605.547500", "223606.847500", "223608.147500", "223609.447500", "223610.747500", "223612.047500", "223613.347500", "223614.647500", "223615.947500", "223617.247500", "223618.547500", "223619.847500", "223621.147500", "223622.447500", "223623.747500", "223625.047500", "223626.347500", "223627.647500", "223628.947500", "223630.247500", "223631.547500", "223632.847500", "223634.147500", "223635.447500", "223636.747500", "223638.047500", "223639.347500", "223640.647500", "223641.947500", "223643.247500", "223644.547500", "223645.847500", "223647.147500", "223648.447500", "223649.747500", "223651.047500", "223652.347500", "223653.647500", "223654.947500", "223656.247500", "223657.547500", "223658.847500", "223700.147500", "223701.447500", "223702.747500", "223704.047500", "223705.347500", "223706.647500", "223707.947500", "223709.247500", "223710.547500", "223711.847500", "223713.147500", "223714.447500", "223715.747500", "223717.047500", "223718.347500", "223719.647500", "223720.947500", "223722.247500", "223723.547500", "223724.847500", "223726.147500", "223727.447500", "223728.747500", "223730.047500", "223731.347500", "223732.647500", "223733.947500", "223735.247500", "223736.547500", "223737.847500", "223739.147500", "223740.447500", "223741.747500", "223743.047500", "223744.347500", "223745.647500", "223746.947500", "223748.247500", "223749.547500", "223750.847500", "223752.147500", "223753.447500", "223754.747500", "223756.047500", "223757.347500", "223758.647500", "223759.947500", "223801.247500", "223802.547500", "223803.847500", "223805.147500", "223806.447500", "223807.747500", "223809.047500", "223810.347500", "223811.647500", "223812.947500", "223814.247500", "223815.547500", "223816.847500", "223818.147500", "223819.447500", "223820.747500", "223822.047500", "223823.347500", "223824.647500", "223825.947500", "223827.247500", "223828.547500", "223829.847500", "223831.147500", "223832.447500", "223833.747500", "223835.047500", "223836.347500", "223837.647500", "223838.947500", "223840.247500", "223841.547500", "223842.847500", "223844.147500", "223845.447500", "223846.747500", "223848.047500", "223849.347500", "223850.647500", "223851.947500", "223853.247500", "223854.547500", "223855.847500", "223857.147500", "223858.447500", "223859.747500", "223901.047500", "223902.347500", "223903.647500", "223904.947500", "223906.247500", "223907.547500", "223908.847500", "223910.147500", "223911.447500", "223912.747500", "223914.047500", "223915.347500", "223916.647500", "223917.947500", "223919.247500", "223920.547500", "223921.847500", "223923.147500", "223924.447500", "223925.747500", "223927.047500", "223928.347500", "223929.647500", "223930.947500", "223932.247500", "223933.547500", "223934.847500", "223936.147500", "223937.447500", "223938.747500", "223940.047500", "223941.347500", "223942.647500", "223943.947500", "223945.247500", "223946.547500", "223947.847500", "223949.147500", "223950.447500", "223951.747500", "223953.047500", "223954.347500", "223955.647500", "223956.947500", "223958.247500", "223959.547500", "224000.847500", "224002.147500", "224003.447500", "224004.747500", "224006.047500", "224007.347500", "224008.647500", "224009.947500", "224011.247500", "224012.547500", "224013.847500", "224015.147500", "224016.447500", "224017.747500", "224019.047500", "224020.347500", "224021.647500", "224022.947500", "224024.247500", "224025.547500", "224026.847500", "224028.147500", "224029.447500", "224030.747500", "224032.047500", "224033.347500", "224034.647500", "224035.947500", "224037.247500", "224038.547500", "224039.847500", "224041.147500", "224042.447500", "224043.747500", "224045.047500", "224046.347500", "224047.647500", "224048.947500", "224050.247500", "224051.547500", "224052.847500", "224054.147500", "224055.447500", "224056.747500", "224058.047500", "224059.347500", "224100.647500", "224101.947500", "224103.247500", "224104.547500", "224105.847500", "224107.147500", "224108.447500", "224109.747500", "224111.047500", "224112.347500", "224113.647500", "224114.947500", "224116.247500", "224117.547500", "224118.847500", "224120.147500", "224121.447500", "224122.747500", "224124.047500", "224125.347500", "224126.647500"],
      "ContentTime": ["223445.623000", "223450.590000", "223450.596000", "223450.598000", "223450.601000", "223450.604000", "223450.607000", "223450.610000", "223450.613000", "223450.615000", "223450.620000", "223455.590000", "223455.594000", "223455.601000", "223455.603000", "223455.606000", "223455.616000", "223455.619000", "223455.622000", "223455.625000", "223455.627000", "223500.591000", "223500.594000", "223500.597000", "223500.600000", "223505.591000", "223505.594000", "223505.597000", "223505.600000", "223510.590000", "223510.593000", "223510.596000", "223510.604000", "223515.590000", "223515.593000", "223515.596000", "223515.599000", "223520.591000", "223520.594000", "223520.597000", "223520.600000", "223525.590000", "223525.593000", "223525.596000", "223530.590000", "223530.593000", "223530.596000", "223530.599000", "223535.591000", "223535.594000", "223535.597000", "223535.599000", "223540.591000", "223540.594000", "223540.601000", "223540.604000", "223545.590000", "223545.593000", "223545.596000", "223545.599000", "223550.590000", "223550.593000", "223550.596000", "223550.599000", "223555.591000", "223555.594000", "223555.597000", "223555.600000", "223600.590000", "223600.594000", "223600.597000", "223605.590000", "223605.593000", "223605.596000", "223605.599000", "223610.591000", "223610.594000", "223610.597000", "223610.600000", "223615.591000", "223615.594000", "223615.597000", "223615.600000", "223620.590000", "223620.593000", "223620.596000", "223620.608000", "223625.590000", "223625.593000", "223625.596000", "223625.599000", "223630.591000", "223630.594000", "223630.597000", "223630.600000", "223635.590000", "223635.593000", "223635.596000", "223640.590000", "223640.593000", "223640.596000", "223640.599000", "223645.591000", "223645.594000", "223645.597000", "223645.600000", "223650.591000", "223650.594000", "223650.597000", "223650.600000", "223655.590000", "223655.593000", "223655.596000", "223655.599000", "223700.590000", "223700.593000", "223700.596000", "223700.599000", "223705.592000", "223705.595000", "223705.598000", "223710.590000", "223710.593000", "223710.596000", "223710.599000", "223715.590000", "223715.593000", "223715.596000", "223715.599000", "223720.591000", "223720.594000", "223720.597000", "223720.600000", "223725.591000", "223725.594000", "223725.597000", "223725.600000", "223730.590000", "223730.593000", "223730.596000", "223730.599000", "223735.590000", "223735.593000", "223735.596000", "223740.591000", "223740.594000", "223740.597000", "223740.600000", "223745.590000", "223745.593000", "223745.596000", "223745.599000", "223750.590000", "223750.593000", "223750.596000", "223750.599000", "223755.591000", "223755.594000", "223755.597000", "223755.617000", "223800.591000", "223800.594000", "223800.597000", "223800.600000", "223805.590000", "223805.593000", "223805.596000", "223805.599000", "223810.591000", "223810.594000", "223810.597000", "223815.591000", "223815.594000", "223815.597000", "223815.600000", "223820.590000", "223820.593000", "223820.596000", "223820.599000", "223825.590000", "223825.593000", "223825.596000", "223825.599000", "223830.591000", "223830.594000", "223830.597000", "223830.600000", "223835.591000", "223835.594000", "223835.597000", "223835.600000", "223840.590000", "223840.593000", "223840.596000", "223840.599000", "223845.590000", "223845.593000", "223845.596000", "223850.591000", "223850.594000", "223850.597000", "223850.600000", "223855.590000", "223855.593000", "223855.596000", "223855.599000", "223900.590000", "223900.593000", "223900.596000", "223900.599000", "223905.591000", "223905.594000", "223905.597000", "223905.600000", "223910.591000", "223910.594000", "223910.597000", "223910.600000", "223915.591000", "223915.594000", "223915.597000", "223920.590000", "223920.593000", "223920.596000", "223920.599000", "223925.591000", "223925.594000", "223925.597000", "223925.600000", "223930.590000", "223930.593000", "223930.596000", "223930.599000", "223935.590000", "223935.593000", "223935.596000", "223935.599000", "223940.591000", "223940.594000", "223940.597000", "223940.600000", "223945.591000", "223945.594000", "223945.597000", "223950.590000", "223950.593000", "223950.596000", "223950.599000", "223955.590000", "223955.593000", "223955.596000", "223955.598000", "224000.591000", "224000.594000", "224000.597000", "224000.600000", "224005.590000", "224005.593000", "224005.596000", "224005.599000", "224010.590000", "224010.593000", "224010.596000", "224010.599000", "224015.591000", "224015.594000", "224015.597000", "224015.600000", "224020.591000", "224020.594000", "224020.597000", "224025.590000", "224025.593000", "224025.596000", "224025.599000", "224030.590000", "224030.593000", "224030.596000", "224030.599000", "224035.591000", "224035.594000", "224035.597000", "224035.600000", "224040.590000", "224040.593000", "224040.596000", "224040.599000", "224045.590000", "224045.593000", "224045.596000", "224045.599000", "224050.591000", "224050.594000", "224050.597000", "224050.600000", "224055.591000", "224055.594000", "224055.597000", "224100.590000", "224100.593000", "224100.596000", "224100.599000", "224105.590000", "224105.593000", "224105.596000", "224105.599000", "224110.591000", "224110.594000", "224110.597000", "224110.600000", "224115.590000", "224115.593000", "224115.596000", "224115.599000", "224120.590000", "224120.593000", "224120.596000", "224120.599000", "224125.591000", "224125.594000", "224125.597000", "224128.316000", "224128.319000", "224128.322000"],
      "InstanceCreationTime": ["223445.623000", "223450.590000", "223450.596000", "223450.598000", "223450.601000", "223450.604000", "223450.607000", "223450.610000", "223450.613000", "223450.615000", "223450.620000", "223455.590000", "223455.594000", "223455.601000", "223455.603000", "223455.606000", "223455.616000", "223455.619000", "223455.622000", "223455.625000", "223455.627000", "223500.591000", "223500.594000", "223500.597000", "223500.600000", "223505.591000", "223505.594000", "223505.597000", "223505.600000", "223510.590000", "223510.593000", "223510.596000", "223510.604000", "223515.590000", "223515.593000", "223515.596000", "223515.599000", "223520.591000", "223520.594000", "223520.597000", "223520.600000", "223525.590000", "223525.593000", "223525.596000", "223530.590000", "223530.593000", "223530.596000", "223530.599000", "223535.591000", "223535.594000", "223535.597000", "223535.599000", "223540.591000", "223540.594000", "223540.601000", "223540.604000", "223545.590000", "223545.593000", "223545.596000", "223545.599000", "223550.590000", "223550.593000", "223550.596000", "223550.599000", "223555.591000", "223555.594000", "223555.597000", "223555.600000", "223600.590000", "223600.594000", "223600.597000", "223605.590000", "223605.593000", "223605.596000", "223605.599000", "223610.591000", "223610.594000", "223610.597000", "223610.600000", "223615.591000", "223615.594000", "223615.597000", "223615.600000", "223620.590000", "223620.593000", "223620.596000", "223620.608000", "223625.590000", "223625.593000", "223625.596000", "223625.599000", "223630.591000", "223630.594000", "223630.597000", "223630.600000", "223635.590000", "223635.593000", "223635.596000", "223640.590000", "223640.593000", "223640.596000", "223640.599000", "223645.591000", "223645.594000", "223645.597000", "223645.600000", "223650.591000", "223650.594000", "223650.597000", "223650.600000", "223655.590000", "223655.593000", "223655.596000", "223655.599000", "223700.590000", "223700.593000", "223700.596000", "223700.599000", "223705.592000", "223705.595000", "223705.598000", "223710.590000", "223710.593000", "223710.596000", "223710.599000", "223715.590000", "223715.593000", "223715.596000", "223715.599000", "223720.591000", "223720.594000", "223720.597000", "223720.600000", "223725.591000", "223725.594000", "223725.597000", "223725.600000", "223730.590000", "223730.593000", "223730.596000", "223730.599000", "223735.590000", "223735.593000", "223735.596000", "223740.591000", "223740.594000", "223740.597000", "223740.600000", "223745.590000", "223745.593000", "223745.596000", "223745.599000", "223750.590000", "223750.593000", "223750.596000", "223750.599000", "223755.591000", "223755.594000", "223755.597000", "223755.617000", "223800.591000", "223800.594000", "223800.597000", "223800.600000", "223805.590000", "223805.593000", "223805.596000", "223805.599000", "223810.591000", "223810.594000", "223810.597000", "223815.591000", "223815.594000", "223815.597000", "223815.600000", "223820.590000", "223820.593000", "223820.596000", "223820.599000", "223825.590000", "223825.593000", "223825.596000", "223825.599000", "223830.591000", "223830.594000", "223830.597000", "223830.600000", "223835.591000", "223835.594000", "223835.597000", "223835.600000", "223840.590000", "223840.593000", "223840.596000", "223840.599000", "223845.590000", "223845.593000", "223845.596000", "223850.591000", "223850.594000", "223850.597000", "223850.600000", "223855.590000", "223855.593000", "223855.596000", "223855.599000", "223900.590000", "223900.593000", "223900.596000", "223900.599000", "223905.591000", "223905.594000", "223905.597000", "223905.600000", "223910.591000", "223910.594000", "223910.597000", "223910.600000", "223915.591000", "223915.594000", "223915.597000", "223920.590000", "223920.593000", "223920.596000", "223920.599000", "223925.591000", "223925.594000", "223925.597000", "223925.600000", "223930.590000", "223930.593000", "223930.596000", "223930.599000", "223935.590000", "223935.593000", "223935.596000", "223935.599000", "223940.591000", "223940.594000", "223940.597000", "223940.600000", "223945.591000", "223945.594000", "223945.597000", "223950.590000", "223950.593000", "223950.596000", "223950.599000", "223955.590000", "223955.593000", "223955.596000", "223955.598000", "224000.591000", "224000.594000", "224000.597000", "224000.600000", "224005.590000", "224005.593000", "224005.596000", "224005.599000", "224010.590000", "224010.593000", "224010.596000", "224010.599000", "224015.591000", "224015.594000", "224015.597000", "224015.600000", "224020.591000", "224020.594000", "224020.597000", "224025.590000", "224025.593000", "224025.596000", "224025.599000", "224030.590000", "224030.593000", "224030.596000", "224030.599000", "224035.591000", "224035.594000", "224035.597000", "224035.600000", "224040.590000", "224040.593000", "224040.596000", "224040.599000", "224045.590000", "224045.593000", "224045.596000", "224045.599000", "224050.591000", "224050.594000", "224050.597000", "224050.600000", "224055.591000", "224055.594000", "224055.597000", "224100.590000", "224100.593000", "224100.596000", "224100.599000", "224105.590000", "224105.593000", "224105.596000", "224105.599000", "224110.591000", "224110.594000", "224110.597000", "224110.600000", "224115.590000", "224115.593000", "224115.596000", "224115.599000", "224120.590000", "224120.593000", "224120.596000", "224120.599000", "224125.591000", "224125.594000", "224125.597000", "224128.316000", "224128.319000", "224128.322000"],
      "InstanceNumber": [1, 2, 3, 4, 5, 6, 7, 8, 9, 10, 11, 12, 13, 14, 15, 16, 17, 18, 19, 20, 21, 22, 23, 24, 25, 26, 27, 28, 29, 30, 31, 32, 33, 34, 35, 36, 37, 38, 39, 40, 41, 42, 43, 44, 45, 46, 47, 48, 49, 50, 51, 52, 53, 54, 55, 56, 57, 58, 59, 60, 61, 62, 63, 64, 65, 66, 67, 68, 69, 70, 71, 72, 73, 74, 75, 76, 77, 78, 79, 80, 81, 82, 83, 84, 85, 86, 87, 88, 89, 90, 91, 92, 93, 94, 95, 96, 97, 98, 99, 100, 101, 102, 103, 104, 105, 106, 107, 108, 109, 110, 111, 112, 113, 114, 115, 116, 117, 118, 119, 120, 121, 122, 123, 124, 125, 126, 127, 128, 129, 130, 131, 132, 133, 134, 135, 136, 137, 138, 139, 140, 141, 142, 143, 144, 145, 146, 147, 148, 149, 150, 151, 152, 153, 154, 155, 156, 157, 158, 159, 160, 161, 162, 163, 164, 165, 166, 167, 168, 169, 170, 171, 172, 173, 174, 175, 176, 177, 178, 179, 180, 181, 182, 183, 184, 185, 186, 187, 188, 189, 190, 191, 192, 193, 194, 195, 196, 197, 198, 199, 200, 201, 202, 203, 204, 205, 206, 207, 208, 209, 210, 211, 212, 213, 214, 215, 216, 217, 218, 219, 220, 221, 222, 223, 224, 225, 226, 227, 228, 229, 230, 231, 232, 233, 234, 235, 236, 237, 238, 239, 240, 241, 242, 243, 244, 245, 246, 247, 248, 249, 250, 251, 252, 253, 254, 255, 256, 257, 258, 259, 260, 261, 262, 263, 264, 265, 266, 267, 268, 269, 270, 271, 272, 273, 274, 275, 276, 277, 278, 279, 280, 281, 282, 283, 284, 285, 286, 287, 288, 289, 290, 291, 292, 293, 294, 295, 296, 297, 298, 299, 300, 301, 302, 303, 304, 305, 306, 307, 308, 309, 310, 311, 312, 313, 314, 315, 316, 317, 318, 319, 320, 321, 322, 323, 324],
      "LargestImagePixelValue": [27352, 23671, 23509, 21581, 21003, 21094, 21320, 25236, 27551, 22572, 22595, 21431, 21038, 22061, 21428, 21981, 21590, 21447, 21394, 21232, 22405, 21116, 21481, 21011, 21510, 26640, 27334, 22692, 22147, 21789, 21523, 22738, 21557, 28381, 21153, 22043, 21455, 21761, 21224, 26955, 22488, 21387, 21139, 21301, 21776, 22584, 21415, 21495, 21546, 23400, 21514, 21989, 22385, 22101, 22033, 21974, 21642, 21786, 22070, 22661, 21366, 21334, 23579, 21862, 21172, 22090, 21543, 24707, 22381, 25273, 21729, 21825, 21502, 22542, 22050, 23824, 22428, 21382, 21508, 21566, 21312, 24663, 22501, 22428, 21743, 22000, 21736, 21962, 20956, 25039, 21569, 22088, 21543, 21930, 21947, 21634, 21640, 21164, 22386, 22069, 22046, 22179, 22180, 21817, 22052, 21923, 21797, 21979, 21766, 22053, 21726, 21745, 21362, 21881, 21923, 21609, 21545, 21360, 21774, 21830, 21692, 21541, 19901, 22753, 21340, 20138, 20895, 20616, 26115, 22475, 22005, 24317, 23212, 23961, 21774, 22110, 21446, 20941, 20450, 19810, 22004, 26173, 23405, 21228, 21626, 21626, 21376, 20475, 20737, 20828, 22084, 22649, 27370, 21592, 22071, 20783, 24937, 21311, 22309, 22732, 23095, 21935, 20806, 20962, 21910, 21711, 23526, 20813, 22344, 21763, 21496, 21996, 26122, 21249, 20888, 20804, 20840, 29351, 22584, 22459, 24356, 21534, 21792, 22166, 21980, 24656, 21901, 21477, 21417, 22390, 25482, 25783, 21439, 21840, 22442, 21499, 25793, 21135, 21069, 21119, 21188, 21217, 21577, 21652, 21533, 21782, 21715, 21782, 21770, 21282, 21797, 26366, 25556, 22401, 22585, 22429, 22322, 23570, 23358, 21680, 21899, 21680, 21991, 22153, 22084, 22519, 22434, 22046, 25892, 23111, 21194, 22855, 22145, 22555, 24835, 22827, 22284, 21831, 24709, 22074, 22594, 21856, 21186, 21527, 21766, 21016, 21395, 24007, 21545, 21592, 21455, 21287, 23227, 20986, 21043, 21253, 20839, 20790, 21295, 21338, 21119, 20788, 20786, 20734, 21079, 20653, 21589, 20568, 21013, 20854, 20592, 21657, 20551, 20560, 20612, 20516, 18672, 20646, 21142, 20882, 20507, 20139, 20030, 20587, 20572, 20495, 20068, 22476, 21028, 21062, 20277, 20038, 19986, 20025, 20370, 20221, 20437, 20266, 20295, 20330, 20239, 20066, 20063, 20005, 19940, 20202, 20198, 19961, 20105, 20173, 20014, 20186, 19906, 20134, 20022, 19970, 20044, 19742, 19907, 19997, 19775, 19973, 20073, 19982],
      "WindowCenter": [6810.0, 6739.0, 6724.0, 6670.0, 6636.0, 6619.0, 6592.0, 6653.0, 6684.0, 6607.0, 6618.0, 6590.0, 6607.0, 6562.0, 6617.0, 6627.0, 6606.0, 6601.0, 6589.0, 6567.0, 6521.0, 6568.0, 6537.0, 6566.0, 6558.0, 6457.0, 6694.0, 6579.0, 6571.0, 6569.0, 6559.0, 6588.0, 6535.0, 6711.0, 6566.0, 6609.0, 6547.0, 6610.0, 6535.0, 6605.0, 6606.0, 6583.0, 6575.0, 6569.0, 6558.0, 6619.0, 6614.0, 6624.0, 6623.0, 6651.0, 6611.0, 6620.0, 6619.0, 6620.0, 6619.0, 6620.0, 6633.0, 6623.0, 6652.0, 6808.0, 6638.0, 6627.0, 6711.0, 6574.0, 6529.0, 6531.0, 6290.0, 6612.0, 6582.0, 6623.0, 6581.0, 6584.0, 6558.0, 6677.0, 6610.0, 6559.0, 6582.0, 6577.0, 6579.0, 6565.0, 6550.0, 6578.0, 6564.0, 6563.0, 6557.0, 6580.0, 6586.0, 6603.0, 6573.0, 6644.0, 6591.0, 6610.0, 6600.0, 6594.0, 6594.0, 6582.0, 6594.0, 6588.0, 6630.0, 6634.0, 6624.0, 6648.0, 6651.0, 6640.0, 6634.0, 6609.0, 6585.0, 6591.0, 6571.0, 6594.0, 6584.0, 6585.0, 6581.0, 6596.0, 6596.0, 6570.0, 6560.0, 6524.0, 6583.0, 6584.0, 6572.0, 6536.0, 6265.0, 6514.0, 6455.0, 6426.0, 6463.0, 6355.0, 6645.0, 6610.0, 6442.0, 6837.0, 6770.0, 6694.0, 6432.0, 6642.0, 6601.0, 6578.0, 6565.0, 6557.0, 6535.0, 6700.0, 6650.0, 6593.0, 6622.0, 6599.0, 6530.0, 6551.0, 6548.0, 6563.0, 6566.0, 6634.0, 6694.0, 6591.0, 6580.0, 6523.0, 6580.0, 6528.0, 6549.0, 6562.0, 6566.0, 6542.0, 6502.0, 6481.0, 6460.0, 6388.0, 6490.0, 6528.0, 6550.0, 6532.0, 6529.0, 6389.0, 6591.0, 6491.0, 6484.0, 6495.0, 6401.0, 6547.0, 6564.0, 6554.0, 6575.0, 6521.0, 6462.0, 6540.0, 6498.0, 6510.0, 6613.0, 6575.0, 6560.0, 6551.0, 6410.0, 6586.0, 6507.0, 6514.0, 6535.0, 6490.0, 6636.0, 6606.0, 6616.0, 6629.0, 6627.0, 6615.0, 6611.0, 6605.0, 6595.0, 6592.0, 6577.0, 6574.0, 6567.0, 6568.0, 6582.0, 6654.0, 6635.0, 6602.0, 6599.0, 6567.0, 6561.0, 6592.0, 6531.0, 6515.0, 6524.0, 6498.0, 6484.0, 6472.0, 6512.0, 6414.0, 6545.0, 6455.0, 6570.0, 6492.0, 6435.0, 6505.0, 6499.0, 6522.0, 6583.0, 6547.0, 6548.0, 6554.0, 6612.0, 6579.0, 6589.0, 6468.0, 6415.0, 6600.0, 6563.0, 6534.0, 6520.0, 6566.0, 6518.0, 6518.0, 6519.0, 6535.0, 6575.0, 6542.0, 6525.0, 6513.0, 6510.0, 6501.0, 6489.0, 6501.0, 6480.0, 6470.0, 6470.0, 6497.0, 6469.0, 6508.0, 6536.0, 6529.0, 6459.0, 6527.0, 6531.0, 6533.0, 6488.0, 6474.0, 6472.0, 6471.0, 6182.0, 6289.0, 6293.0, 6492.0, 6498.0, 6488.0, 6491.0, 6557.0, 6530.0, 6532.0, 6313.0, 6488.0, 6414.0, 6556.0, 6498.0, 6484.0, 6472.0, 6471.0, 6455.0, 6456.0, 6480.0, 6469.0, 6469.0, 6468.0, 6456.0, 6456.0, 6456.0, 6466.0, 6457.0, 6469.0, 6467.0, 6461.0, 6469.0, 6469.0, 6481.0, 6483.0, 6482.0, 6480.0, 6469.0, 6459.0, 6467.0, 6467.0, 6469.0, 6470.0, 6481.0, 6473.0, 6481.0, 6471.0],
      "WindowCenterWidthExplanation": [
        "Algo1",
        "Algo1",
        "Algo1",
        "Algo1",
        "Algo1",
        "Algo1",
        "Algo1",
        "Algo1",
        "Algo1",
        "Algo1",
        "Algo1",
